timestamp,signal
0,508
1,520
2,522
3,524
4,521
5,537
6,552
7,563
8,554
9,527
10,512
11,516
12,517
13,511
14,505
15,526
16,537
17,545
18,557
19,559
20,560
21,570
22,574
23,578
24,581
25,591
26,600
27,601
28,595
29,576
30,553
31,537
32,530
33,515
34,490
35,488
36,493
37,510
38,537
39,535
40,546
41,558
42,553
43,536
44,510
45,512
46,523
47,528
48,538
49,530
50,519
51,509
52,503
53,500
54,486
55,480
56,490
57,503
58,509
59,496
60,490
61,497
62,514
63,531
64,529
65,530
66,527
67,524
68,491
69,465
70,472
71,491
72,512
73,503
74,482
75,472
76,468
77,484
78,487
79,487
80,510
81,542
82,550
83,552
84,541
85,547
86,557
87,542
88,511
89,479
90,465
91,464
92,469
93,464
94,443
95,444
96,442
97,434
98,429
99,419
100,432
101,441
102,459
103,445
104,435
105,446
106,483
107,505
108,515
109,508
110,524
111,543
112,539
113,509
114,485
115,491
116,494
117,497
118,497
119,491
120,502
121,521
122,516
123,524
124,530
125,539
126,538
127,528
128,524
129,487
130,471
131,476
132,488
133,478
134,457
135,454
136,457
137,467
138,474
139,480
140,486
141,484
142,492
143,495
144,500
145,504
146,512
147,523
148,507
149,479
150,487
151,511
152,535
153,539
154,523
155,493
156,476
157,484
158,477
159,472
160,489
161,526
162,550
163,554
164,543
165,537
166,537
167,535
168,537
169,522
170,513
171,519
172,532
173,542
174,545
175,567
176,586
177,601
178,598
179,574
180,567
181,569
182,564
183,573
184,539
185,529
186,529
187,549
188,562
189,577
190,603
191,628
192,629
193,614
194,591
195,581
196,560
197,534
198,528
199,522
200,523
201,526
202,531
203,538
204,524
205,522
206,529
207,507
208,508
209,501
210,507
211,517
212,532
213,527
214,505
215,497
216,495
217,503
218,518
219,508
220,506
221,511
222,524
223,526
224,512
225,519
226,525
227,515
228,499
229,479
230,482
231,479
232,472
233,468
234,448
235,446
236,455
237,459
238,472
239,501
240,510
241,533
242,551
243,551
244,543
245,540
246,542
247,534
248,528
249,514
250,513
251,525
252,529
253,540
254,544
255,559
256,562
257,562
258,557
259,538
260,531
261,529
262,524
263,519
264,513
265,527
266,536
267,536
268,532
269,520
270,526
271,535
272,541
273,539
274,521
275,533
276,529
277,538
278,542
279,540
280,544
281,545
282,552
283,555
284,541
285,519
286,502
287,500
288,487
289,452
290,437
291,435
292,441
293,468
294,477
295,491
296,496
297,499
298,504
299,505
300,521
301,535
302,544
303,537
304,530
305,534
306,539
307,547
308,552
309,543
310,551
311,545
312,543
313,540
314,524
315,525
316,523
317,522
318,520
319,524
320,534
321,536
322,528
323,514
324,511
325,516
326,507
327,501
328,513
329,523
330,531
331,544
332,545
333,541
334,543
335,552
336,552
337,551
338,546
339,520
340,503
341,499
342,500
343,503
344,507
345,513
346,492
347,478
348,474
349,472
350,482
351,500
352,514
353,516
354,506
355,507
356,502
357,499
358,504
359,502
360,510
361,536
362,558
363,555
364,542
365,539
366,538
367,537
368,521
369,502
370,499
371,495
372,480
373,465
374,444
375,446
376,455
377,468
378,466
379,446
380,438
381,436
382,441
383,450
384,447
385,441
386,453
387,465
388,467
389,462
390,480
391,500
392,496
393,493
394,480
395,476
396,472
397,462
398,459
399,438
400,441
401,457
402,477
403,487
404,484
405,499
406,512
407,513
408,501
409,477
410,473
411,471
412,471
413,470
414,460
415,471
416,480
417,497
418,510
419,507
420,503
421,509
422,480
423,456
424,430
425,419
426,418
427,431
428,426
429,415
430,416
431,415
432,425
433,439
434,451
435,469
436,475
437,463
438,459
439,464
440,484
441,514
442,525
443,531
444,529
445,523
446,512
447,500
448,480
449,463
450,466
451,485
452,494
453,497
454,499
455,513
456,531
457,540
458,544
459,530
460,533
461,536
462,533
463,526
464,512
465,517
466,522
467,513
468,500
469,489
470,503
471,513
472,521
473,523
474,515
475,521
476,534
477,542
478,544
479,531
480,535
481,556
482,563
483,544
484,513
485,505
486,494
487,495
488,488
489,471
490,476
491,476
492,470
493,478
494,491
495,521
496,534
497,537
498,536
499,518
500,508
501,498
502,500
503,496
504,488
505,487
506,493
507,503
508,510
509,502
510,508
511,523
512,505
513,489
514,459
515,454
516,460
517,471
518,470
519,456
520,463
521,482
522,499
523,509
524,507
525,507
526,514
527,524
528,523
529,524
530,513
531,513
532,514
533,502
534,479
535,481
536,503
537,521
538,533
539,525
540,534
541,531
542,516
543,516
544,527
545,566
546,574
547,569
548,555
549,559
550,564
551,583
552,587
553,603
554,604
555,591
556,586
557,586
558,582
559,552
560,544
561,543
562,546
563,541
564,521
565,511
566,517
567,511
568,496
569,477
570,470
571,466
572,467
573,483
574,503
575,519
576,530
577,519
578,514
579,512
580,526
581,537
582,531
583,526
584,515
585,505
586,497
587,483
588,477
589,469
590,471
591,478
592,492
593,515
594,534
595,544
596,551
597,535
598,515
599,491
600,487
601,498
602,485
603,485
604,491
605,506
606,512
607,513
608,525
609,532
610,542
611,549
612,527
613,509
614,507
615,508
616,496
617,477
618,460
619,439
620,448
621,463
622,499
623,527
624,541
625,556
626,564
627,551
628,536
629,516
630,517
631,514
632,513
633,515
634,510
635,517
636,525
637,513
638,499
639,490
640,498
641,518
642,522
643,521
644,513
645,508
646,510
647,519
648,506
649,480
650,469
651,467
652,476
653,462
654,451
655,464
656,478
657,497
658,493
659,480
660,474
661,481
662,486
663,492
664,484
665,491
666,502
667,510
668,512
669,490
670,487
671,487
672,487
673,485
674,471
675,475
676,478
677,476
678,474
679,459
680,472
681,498
682,509
683,507
684,497
685,506
686,516
687,520
688,515
689,495
690,500
691,517
692,529
693,540
694,542
695,540
696,534
697,531
698,510
699,475
700,473
701,491
702,526
703,536
704,513
705,495
706,492
707,496
708,497
709,490
710,494
711,500
712,517
713,531
714,521
715,515
716,519
717,519
718,524
719,531
720,559
721,576
722,593
723,596
724,583
725,579
726,575
727,571
728,575
729,570
730,575
731,576
732,575
733,567
734,543
735,537
736,533
737,513
738,492
739,482
740,465
741,474
742,492
743,508
744,524
745,545
746,546
747,539
748,521
749,492
750,492
751,502
752,494
753,482
754,467
755,470
756,471
757,460
758,444
759,437
760,454
761,480
762,515
763,544
764,551
765,544
766,517
767,484
768,464
769,464
770,484
771,514
772,531
773,535
774,531
775,535
776,544
777,531
778,520
779,518
780,521
781,537
782,544
783,547
784,552
785,562
786,553
787,527
788,502
789,487
790,500
791,516
792,531
793,540
794,529
795,517
796,514
797,512
798,508
799,492
800,494
801,516
802,519
803,504
804,465
805,451
806,441
807,438
808,431
809,431
810,452
811,478
812,496
813,502
814,498
815,508
816,526
817,549
818,554
819,548
820,552
821,541
822,530
823,524
824,518
825,519
826,526
827,534
828,530
829,513
830,504
831,501
832,515
833,513
834,499
835,491
836,502
837,517
838,515
839,501
840,499
841,505
842,520
843,538
844,540
845,531
846,541
847,553
848,549
849,531
850,531
851,524
852,496
853,479
854,462
855,476
856,497
857,508
858,496
859,466
860,453
861,473
862,495
863,509
864,508
865,512
866,526
867,542
868,553
869,545
870,552
871,547
872,531
873,524
874,520
875,527
876,530
877,506
878,486
879,472
880,473
881,475
882,482
883,487
884,476
885,475
886,466
887,451
888,448
889,444
890,449
891,456
892,470
893,491
894,498
895,517
896,529
897,535
898,536
899,533
900,547
901,565
902,582
903,583
904,564
905,554
906,551
907,544
908,529
909,505
910,475
911,468
912,478
913,493
914,501
915,512
916,518
917,509
918,502
919,505
920,552
921,561
922,566
923,565
924,550
925,543
926,546
927,539
928,538
929,536
930,541
931,549
932,546
933,550
934,535
935,532
936,536
937,536
938,535
939,518
940,519
941,522
942,525
943,513
944,520
945,512
946,505
947,509
948,523
949,522
950,538
951,540
952,533
953,526
954,504
955,494
956,489
957,481
958,480
959,472
960,476
961,485
962,508
963,505
964,491
965,496
966,498
967,494
968,491
969,494
970,518
971,531
972,529
973,531
974,524
975,528
976,521
977,528
978,516
979,503
980,492
981,486
982,482
983,481
984,459
985,457
986,476
987,488
988,498
989,504
990,522
991,536
992,532
993,512
994,486
995,473
996,461
997,472
998,492
999,496
1000,514
1001,525
1002,534
1003,531
1004,510
1005,517
1006,529
1007,536
1008,549
1009,539
1010,519
1011,519
1012,531
1013,527
1014,502
1015,487
1016,488
1017,484
1018,478
1019,466
1020,473
1021,483
1022,488
1023,478
1024,462
1025,442
1026,444
1027,446
1028,435
1029,415
1030,415
1031,418
1032,425
1033,427
1034,438
1035,472
1036,513
1037,537
1038,551
1039,551
1040,555
1041,565
1042,575
1043,585
1044,583
1045,584
1046,575
1047,573
1048,572
1049,559
1050,547
1051,540
1052,529
1053,532
1054,511
1055,505
1056,503
1057,508
1058,504
1059,495
1060,496
1061,516
1062,528
1063,520
1064,496
1065,485
1066,471
1067,451
1068,435
1069,418
1070,425
1071,444
1072,463
1073,467
1074,457
1075,454
1076,461
1077,474
1078,488
1079,496
1080,503
1081,510
1082,526
1083,493
1084,454
1085,438
1086,439
1087,455
1088,461
1089,458
1090,447
1091,447
1092,463
1093,486
1094,512
1095,534
1096,537
1097,528
1098,516
1099,512
1100,515
1101,522
1102,519
1103,516
1104,495
1105,488
1106,497
1107,508
1108,518
1109,508
1110,505
1111,491
1112,484
1113,467
1114,448
1115,464
1116,492
1117,511
1118,523
1119,518
1120,526
1121,531
1122,531
1123,527
1124,525
1125,523
1126,512
1127,513
1128,526
1129,524
1130,513
1131,509
1132,520
1133,519
1134,497
1135,476
1136,462
1137,446
1138,447
1139,455
1140,475
1141,496
1142,504
1143,505
1144,502
1145,519
1146,529
1147,528
1148,528
1149,518
1150,525
1151,531
1152,540
1153,544
1154,538
1155,551
1156,563
1157,573
1158,592
1159,573
1160,580
1161,587
1162,587
1163,579
1164,560
1165,549
1166,539
1167,539
1168,534
1169,502
1170,502
1171,519
1172,531
1173,527
1174,509
1175,514
1176,521
1177,520
1178,534
1179,558
1180,577
1181,581
1182,568
1183,563
1184,553
1185,547
1186,540
1187,524
1188,513
1189,502
1190,511
1191,525
1192,512
1193,497
1194,487
1195,494
1196,487
1197,470
1198,455
1199,444
1200,453
1201,472
1202,486
1203,494
1204,492
1205,504
1206,517
1207,523
1208,525
1209,510
1210,483
1211,454
1212,436
1213,432
1214,444
1215,468
1216,486
1217,497
1218,499
1219,494
1220,497
1221,525
1222,520
1223,522
1224,524
1225,518
1226,500
1227,497
1228,503
1229,499
1230,502
1231,521
1232,537
1233,536
1234,521
1235,510
1236,508
1237,508
1238,508
1239,504
1240,529
1241,536
1242,539
1243,526
1244,515
1245,502
1246,508
1247,518
1248,524
1249,528
1250,526
1251,515
1252,504
1253,490
1254,473
1255,484
1256,500
1257,510
1258,502
1259,470
1260,458
1261,445
1262,424
1263,428
1264,451
1265,480
1266,500
1267,510
1268,519
1269,524
1270,532
1271,550
1272,563
1273,570
1274,575
1275,586
1276,578
1277,560
1278,547
1279,540
1280,543
1281,539
1282,533
1283,536
1284,531
1285,543
1286,547
1287,536
1288,524
1289,503
1290,496
1291,498
1292,500
1293,507
1294,494
1295,498
1296,505
1297,508
1298,512
1299,494
1300,493
1301,505
1302,507
1303,510
1304,510
1305,514
1306,531
1307,557
1308,576
1309,570
1310,568
1311,572
1312,555
1313,546
1314,551
1315,566
1316,573
1317,578
1318,569
1319,548
1320,548
1321,548
1322,547
1323,542
1324,529
1325,530
1326,520
1327,497
1328,479
1329,467
1330,477
1331,478
1332,482
1333,498
1334,515
1335,537
1336,550
1337,550
1338,548
1339,536
1340,535
1341,542
1342,543
1343,549
1344,556
1345,565
1346,559
1347,537
1348,519
1349,510
1350,524
1351,537
1352,544
1353,550
1354,557
1355,576
1356,568
1357,555
1358,535
1359,503
1360,495
1361,503
1362,512
1363,527
1364,531
1365,543
1366,551
1367,552
1368,542
1369,514
1370,509
1371,518
1372,530
1373,531
1374,519
1375,527
1376,537
1377,533
1378,515
1379,479
1380,478
1381,492
1382,505
1383,505
1384,500
1385,503
1386,507
1387,511
1388,510
1389,500
1390,511
1391,518
1392,509
1393,512
1394,528
1395,543
1396,550
1397,551
1398,554
1399,550
1400,541
1401,530
1402,515
1403,504
1404,487
1405,475
1406,460
1407,463
1408,484
1409,497
1410,514
1411,529
1412,543
1413,526
1414,510
1415,510
1416,510
1417,501
1418,491
1419,478
1420,486
1421,508
1422,520
1423,517
1424,519
1425,523
1426,529
1427,526
1428,519
1429,490
1430,482
1431,479
1432,488
1433,503
1434,504
1435,516
1436,539
1437,536
1438,523
1439,506
1440,508
1441,525
1442,539
1443,551
1444,560
1445,570
1446,564
1447,550
1448,553
1449,528
1450,512
1451,506
1452,504
1453,505
1454,500
1455,513
1456,517
1457,513
1458,503
1459,489
1460,491
1461,499
1462,491
1463,480
1464,457
1465,446
1466,446
1467,454
1468,466
1469,474
1470,492
1471,508
1472,516
1473,504
1474,468
1475,463
1476,473
1477,480
1478,475
1479,466
1480,456
1481,436
1482,428
1483,424
1484,419
1485,430
1486,440
1487,459
1488,471
1489,462
1490,459
1491,470
1492,475
1493,496
1494,505
1495,518
1496,524
1497,516
1498,510
1499,503
1500,511
1501,524
1502,539
1503,543
1504,528
1505,531
1506,543
1507,548
1508,542
1509,519
1510,507
1511,483
1512,462
1513,448
1514,428
1515,430
1516,432
1517,426
1518,424
1519,421
1520,421
1521,425
1522,441
1523,445
1524,425
1525,410
1526,397
1527,411
1528,420
1529,428
1530,415
1531,412
1532,426
1533,444
1534,463
1535,492
1536,516
1537,530
1538,542
1539,531
1540,526
1541,527
1542,537
1543,531
1544,518
1545,521
1546,523
1547,516
1548,509
1549,493
1550,488
1551,487
1552,485
1553,481
1554,462
1555,453
1556,451
1557,456
1558,466
1559,472
1560,498
1561,515
1562,511
1563,493
1564,479
1565,476
1566,487
1567,505
1568,521
1569,504
1570,502
1571,511
1572,508
1573,486
1574,463
1575,466
1576,473
1577,485
1578,487
1579,474
1580,477
1581,492
1582,507
1583,521
1584,508
1585,515
1586,526
1587,519
1588,511
1589,512
1590,527
1591,537
1592,535
1593,531
1594,515
1595,522
1596,530
1597,528
1598,514
1599,492
1600,498
1601,516
1602,523
1603,531
1604,525
1605,528
1606,515
1607,494
1608,471
1609,460
1610,475
1611,495
1612,509
1613,510
1614,503
1615,519
1616,535
1617,533
1618,527
1619,516
1620,526
1621,547
1622,578
1623,580
1624,550
1625,540
1626,536
1627,535
1628,528
1629,499
1630,494
1631,497
1632,503
1633,502
1634,494
1635,501
1636,515
1637,536
1638,552
1639,546
1640,536
1641,523
1642,515
1643,492
1644,466
1645,452
1646,452
1647,469
1648,471
1649,455
1650,455
1651,467
1652,476
1653,504
1654,486
1655,493
1656,500
1657,512
1658,510
1659,504
1660,517
1661,539
1662,564
1663,576
1664,570
1665,569
1666,574
1667,576
1668,560
1669,534
1670,531
1671,538
1672,540
1673,535
1674,516
1675,509
1676,514
1677,523
1678,528
1679,524
1680,521
1681,518
1682,518
1683,527
1684,526
1685,543
1686,554
1687,546
1688,538
1689,534
1690,535
1691,531
1692,527
1693,527
1694,529
1695,537
1696,544
1697,540
1698,532
1699,506
1700,503
1701,507
1702,512
1703,511
1704,503
1705,505
1706,524
1707,539
1708,548
1709,534
1710,537
1711,547
1712,548
1713,527
1714,488
1715,473
1716,472
1717,476
1718,469
1719,456
1720,455
1721,460
1722,476
1723,474
1724,466
1725,456
1726,452
1727,466
1728,475
1729,463
1730,473
1731,493
1732,504
1733,518
1734,530
1735,552
1736,568
1737,574
1738,569
1739,534
1740,500
1741,483
1742,469
1743,451
1744,422
1745,436
1746,468
1747,492
1748,489
1749,471
1750,471
1751,485
1752,497
1753,502
1754,503
1755,511
1756,523
1757,534
1758,542
1759,535
1760,547
1761,545
1762,530
1763,513
1764,477
1765,451
1766,446
1767,462
1768,462
1769,432
1770,422
1771,432
1772,456
1773,452
1774,440
1775,436
1776,461
1777,453
1778,450
1779,448
1780,466
1781,484
1782,495
1783,510
1784,530
1785,555
1786,560
1787,536
1788,520
1789,497
1790,491
1791,513
1792,538
1793,552
1794,549
1795,544
1796,543
1797,547
1798,539
1799,526
1800,529
1801,539
1802,544
1803,551
1804,546
1805,544
1806,550
1807,556
1808,560
1809,545
1810,550
1811,554
1812,545
1813,528
1814,509
1815,505
1816,494
1817,492
1818,489
1819,485
1820,469
1821,479
1822,507
1823,523
1824,533
1825,540
1826,539
1827,527
1828,507
1829,483
1830,479
1831,477
1832,481
1833,486
1834,475
1835,490
1836,504
1837,504
1838,511
1839,507
1840,513
1841,520
1842,529
1843,526
1844,508
1845,496
1846,496
1847,491
1848,487
1849,477
1850,486
1851,499
1852,516
1853,520
1854,510
1855,517
1856,533
1857,536
1858,529
1859,536
1860,537
1861,533
1862,522
1863,514
1864,516
1865,526
1866,527
1867,522
1868,519
1869,499
1870,483
1871,463
1872,436
1873,416
1874,408
1875,429
1876,460
1877,478
1878,480
1879,472
1880,490
1881,522
1882,543
1883,556
1884,555
1885,567
1886,567
1887,556
1888,541
1889,513
1890,496
1891,487
1892,481
1893,482
1894,479
1895,488
1896,503
1897,516
1898,523
1899,515
1900,507
1901,500
1902,489
1903,490
1904,494
1905,510
1906,522
1907,532
1908,533
1909,526
1910,543
1911,547
1912,558
1913,568
1914,561
1915,568
1916,566
1917,564
1918,553
1919,534
1920,533
1921,536
1922,537
1923,531
1924,512
1925,504
1926,498
1927,508
1928,495
1929,487
1930,499
1931,506
1932,507
1933,517
1934,515
1935,521
1936,533
1937,541
1938,555
1939,559
1940,564
1941,565
1942,547
1943,538
1944,539
1945,545
1946,546
1947,539
1948,532
1949,516
1950,502
1951,505
1952,510
1953,523
1954,529
1955,541
1956,546
1957,553
1958,549
1959,534
1960,535
1961,550
1962,536
1963,511
1964,483
1965,472
1966,468
1967,467
1968,470
1969,466
1970,486
1971,515
1972,520
1973,519
1974,505
1975,505
1976,517
1977,528
1978,518
1979,493
1980,497
1981,502
1982,501
1983,500
1984,498
1985,517
1986,538
1987,547
1988,553
1989,533
1990,526
1991,526
1992,519
1993,515
1994,513
1995,523
1996,536
1997,536
1998,538
1999,528
