timestamp,signal
0,549
1,537
2,521
3,504
4,504
5,502
6,487
7,470
8,459
9,462
10,480
11,493
12,492
13,487
14,501
15,522
16,526
17,519
18,504
19,500
20,512
21,536
22,518
23,502
24,504
25,510
26,507
27,506
28,494
29,497
30,499
31,481
32,469
33,468
34,483
35,475
36,460
37,457
38,456
39,478
40,496
41,518
42,521
43,506
44,487
45,480
46,480
47,469
48,463
49,474
50,480
51,500
52,506
53,490
54,487
55,507
56,531
57,550
58,543
59,528
60,532
61,543
62,539
63,519
64,510
65,499
66,490
67,482
68,463
69,464
70,468
71,470
72,465
73,460
74,469
75,464
76,463
77,459
78,447
79,439
80,453
81,476
82,477
83,469
84,480
85,480
86,480
87,473
88,467
89,487
90,510
91,530
92,538
93,531
94,531
95,550
96,543
97,526
98,508
99,508
100,512
101,511
102,500
103,494
104,498
105,511
106,505
107,495
108,485
109,488
110,504
111,535
112,546
113,550
114,558
115,558
116,565
117,563
118,536
119,511
120,503
121,494
122,497
123,502
124,513
125,528
126,541
127,547
128,530
129,512
130,510
131,520
132,527
133,526
134,532
135,549
136,556
137,547
138,517
139,493
140,489
141,502
142,515
143,525
144,534
145,530
146,508
147,483
148,466
149,468
150,475
151,470
152,474
153,491
154,514
155,525
156,520
157,506
158,486
159,469
160,447
161,435
162,414
163,410
164,418
165,424
166,452
167,465
168,468
169,468
170,468
171,465
172,436
173,419
174,431
175,422
176,447
177,460
178,460
179,467
180,484
181,508
182,518
183,528
184,544
185,551
186,538
187,511
188,490
189,494
190,498
191,496
192,483
193,469
194,463
195,466
196,489
197,486
198,480
199,480
200,497
201,518
202,523
203,521
204,535
205,536
206,544
207,548
208,558
209,575
210,591
211,595
212,582
213,570
214,561
215,558
216,551
217,532
218,513
219,520
220,531
221,535
222,543
223,546
224,566
225,568
226,565
227,559
228,547
229,545
230,558
231,551
232,534
233,526
234,531
235,523
236,507
237,504
238,510
239,516
240,537
241,566
242,572
243,568
244,574
245,584
246,586
247,583
248,577
249,576
250,564
251,552
252,547
253,532
254,515
255,503
256,494
257,496
258,499
259,520
260,540
261,547
262,548
263,551
264,568
265,586
266,601
267,602
268,595
269,587
270,567
271,543
272,519
273,502
274,496
275,494
276,494
277,498
278,500
279,502
280,509
281,515
282,514
283,510
284,507
285,499
286,495
287,478
288,472
289,483
290,487
291,484
292,477
293,468
294,471
295,480
296,489
297,483
298,472
299,469
300,478
301,498
302,498
303,489
304,495
305,507
306,520
307,546
308,565
309,577
310,579
311,577
312,567
313,557
314,568
315,588
316,607
317,611
318,585
319,562
320,553
321,550
322,544
323,528
324,527
325,525
326,529
327,507
328,492
329,498
330,511
331,515
332,515
333,508
334,503
335,498
336,497
337,485
338,469
339,471
340,483
341,490
342,483
343,467
344,473
345,492
346,515
347,515
348,508
349,501
350,500
351,512
352,523
353,531
354,536
355,540
356,527
357,491
358,458
359,444
360,435
361,439
362,439
363,433
364,425
365,412
366,405
367,402
368,414
369,427
370,448
371,475
372,497
373,510
374,527
375,540
376,536
377,526
378,518
379,523
380,527
381,524
382,510
383,496
384,501
385,512
386,522
387,519
388,494
389,486
390,482
391,491
392,489
393,484
394,492
395,504
396,499
397,481
398,478
399,498
400,499
401,504
402,495
403,491
404,504
405,515
406,519
407,530
408,533
409,542
410,541
411,543
412,549
413,556
414,566
415,575
416,578
417,593
418,604
419,616
420,602
421,574
422,536
423,502
424,485
425,482
426,486
427,506
428,523
429,542
430,560
431,550
432,536
433,526
434,530
435,526
436,519
437,512
438,512
439,522
440,531
441,537
442,532
443,531
444,536
445,548
446,556
447,551
448,542
449,539
450,530
451,523
452,520
453,508
454,499
455,488
456,496
457,506
458,502
459,504
460,509
461,509
462,506
463,508
464,510
465,504
466,488
467,474
468,462
469,467
470,481
471,498
472,503
473,494
474,488
475,485
476,483
477,482
478,482
479,478
480,484
481,507
482,518
483,513
484,511
485,496
486,489
487,469
488,440
489,414
490,418
491,432
492,431
493,432
494,441
495,453
496,462
497,435
498,416
499,414
500,432
501,436
502,455
503,479
504,496
505,516
506,535
507,542
508,522
509,486
510,476
511,484
512,495
513,501
514,508
515,518
516,527
517,537
518,547
519,559
520,572
521,578
522,561
523,537
524,521
525,493
526,467
527,446
528,442
529,462
530,475
531,489
532,503
533,504
534,505
535,505
536,494
537,474
538,472
539,494
540,516
541,528
542,530
543,526
544,532
545,527
546,526
547,529
548,529
549,532
550,524
551,509
552,486
553,463
554,451
555,452
556,444
557,437
558,432
559,434
560,449
561,460
562,459
563,464
564,503
565,527
566,548
567,551
568,542
569,543
570,543
571,536
572,521
573,503
574,504
575,507
576,508
577,497
578,477
579,459
580,464
581,482
582,492
583,487
584,503
585,504
586,515
587,516
588,516
589,526
590,522
591,508
592,489
593,472
594,462
595,480
596,507
597,521
598,531
599,542
600,553
601,571
602,582
603,584
604,572
605,572
606,570
607,559
608,534
609,527
610,535
611,550
612,537
613,523
614,527
615,538
616,542
617,532
618,521
619,527
620,539
621,544
622,536
623,508
624,503
625,494
626,484
627,459
628,421
629,408
630,416
631,445
632,473
633,491
634,512
635,522
636,518
637,515
638,524
639,535
640,523
641,497
642,497
643,497
644,495
645,495
646,505
647,510
648,499
649,499
650,487
651,475
652,468
653,471
654,489
655,492
656,489
657,489
658,494
659,507
660,536
661,547
662,535
663,521
664,527
665,532
666,533
667,526
668,521
669,527
670,535
671,534
672,516
673,493
674,483
675,484
676,499
677,503
678,496
679,494
680,502
681,522
682,537
683,542
684,558
685,572
686,567
687,547
688,535
689,532
690,538
691,543
692,533
693,514
694,507
695,509
696,510
697,510
698,506
699,510
700,516
701,524
702,526
703,522
704,535
705,555
706,573
707,562
708,531
709,522
710,519
711,514
712,504
713,487
714,492
715,504
716,526
717,539
718,536
719,530
720,522
721,526
722,525
723,499
724,479
725,471
726,474
727,479
728,465
729,468
730,472
731,484
732,489
733,480
734,481
735,490
736,494
737,487
738,482
739,484
740,502
741,516
742,535
743,562
744,567
745,569
746,556
747,548
748,534
749,533
750,543
751,547
752,538
753,527
754,518
755,509
756,508
757,502
758,482
759,478
760,480
761,487
762,502
763,512
764,528
765,536
766,529
767,524
768,518
769,506
770,513
771,525
772,521
773,512
774,512
775,529
776,547
777,542
778,520
779,516
780,520
781,525
782,531
783,537
784,538
785,548
786,528
787,529
788,536
789,549
790,560
791,560
792,551
793,542
794,551
795,559
796,566
797,567
798,558
799,551
800,542
801,528
802,523
803,530
804,530
805,533
806,533
807,542
808,555
809,557
810,554
811,555
812,553
813,559
814,572
815,588
816,590
817,587
818,575
819,557
820,549
821,527
822,514
823,510
824,519
825,529
826,529
827,536
828,542
829,543
830,537
831,529
832,535
833,538
834,547
835,547
836,535
837,519
838,515
839,511
840,500
841,491
842,475
843,455
844,449
845,457
846,471
847,464
848,451
849,445
850,453
851,453
852,468
853,483
854,495
855,496
856,502
857,503
858,497
859,487
860,480
861,491
862,500
863,501
864,502
865,495
866,491
867,457
868,427
869,404
870,391
871,402
872,408
873,415
874,427
875,435
876,437
877,448
878,472
879,483
880,498
881,504
882,492
883,494
884,504
885,522
886,541
887,546
888,536
889,531
890,530
891,531
892,525
893,514
894,512
895,515
896,520
897,519
898,511
899,503
900,506
901,512
902,491
903,482
904,495
905,510
906,521
907,521
908,515
909,524
910,536
911,548
912,539
913,514
914,501
915,500
916,494
917,470
918,447
919,450
920,457
921,459
922,453
923,453
924,467
925,463
926,460
927,480
928,500
929,520
930,533
931,531
932,534
933,537
934,553
935,560
936,563
937,565
938,564
939,568
940,563
941,555
942,535
943,508
944,500
945,504
946,513
947,514
948,506
949,504
950,501
951,487
952,449
953,418
954,414
955,414
956,434
957,456
958,480
959,497
960,501
961,499
962,481
963,469
964,482
965,496
966,496
967,487
968,496
969,509
970,519
971,528
972,540
973,544
974,547
975,543
976,540
977,531
978,511
979,487
980,468
981,464
982,457
983,440
984,438
985,442
986,456
987,480
988,476
989,468
990,458
991,452
992,472
993,500
994,520
995,529
996,535
997,531
998,518
999,512
1000,504
1001,511
1002,504
1003,494
1004,493
1005,489
1006,489
1007,497
1008,500
1009,502
1010,505
1011,505
1012,497
1013,481
1014,467
1015,453
1016,454
1017,452
1018,451
1019,460
1020,473
1021,487
1022,511
1023,528
1024,551
1025,565
1026,556
1027,535
1028,500
1029,490
1030,495
1031,504
1032,507
1033,514
1034,531
1035,549
1036,555
1037,531
1038,504
1039,502
1040,511
1041,510
1042,510
1043,484
1044,476
1045,476
1046,487
1047,503
1048,519
1049,544
1050,562
1051,553
1052,533
1053,511
1054,499
1055,492
1056,505
1057,512
1058,512
1059,520
1060,528
1061,518
1062,501
1063,498
1064,511
1065,527
1066,539
1067,541
1068,546
1069,555
1070,560
1071,558
1072,541
1073,517
1074,504
1075,509
1076,528
1077,533
1078,521
1079,502
1080,483
1081,486
1082,491
1083,481
1084,486
1085,511
1086,521
1087,500
1088,474
1089,481
1090,504
1091,519
1092,512
1093,500
1094,492
1095,494
1096,501
1097,513
1098,521
1099,537
1100,543
1101,527
1102,494
1103,463
1104,437
1105,418
1106,423
1107,424
1108,430
1109,437
1110,449
1111,464
1112,471
1113,475
1114,483
1115,491
1116,489
1117,482
1118,474
1119,457
1120,459
1121,472
1122,492
1123,512
1124,517
1125,518
1126,521
1127,530
1128,540
1129,552
1130,562
1131,562
1132,579
1133,583
1134,585
1135,589
1136,583
1137,578
1138,575
1139,573
1140,573
1141,562
1142,562
1143,564
1144,570
1145,578
1146,583
1147,568
1148,539
1149,517
1150,509
1151,509
1152,504
1153,497
1154,481
1155,464
1156,452
1157,451
1158,451
1159,468
1160,477
1161,480
1162,480
1163,476
1164,476
1165,483
1166,493
1167,492
1168,485
1169,490
1170,504
1171,520
1172,522
1173,505
1174,496
1175,491
1176,487
1177,488
1178,485
1179,495
1180,493
1181,486
1182,486
1183,491
1184,487
1185,481
1186,466
1187,447
1188,431
1189,439
1190,463
1191,486
1192,503
1193,524
1194,566
1195,577
1196,583
1197,578
1198,561
1199,560
1200,562
1201,555
1202,559
1203,563
1204,582
1205,585
1206,585
1207,572
1208,563
1209,569
1210,566
1211,564
1212,556
1213,536
1214,531
1215,519
1216,498
1217,482
1218,468
1219,468
1220,477
1221,481
1222,489
1223,483
1224,494
1225,519
1226,540
1227,572
1228,601
1229,615
1230,614
1231,603
1232,589
1233,573
1234,569
1235,574
1236,575
1237,572
1238,572
1239,567
1240,572
1241,579
1242,587
1243,596
1244,596
1245,577
1246,550
1247,527
1248,508
1249,480
1250,469
1251,464
1252,451
1253,442
1254,459
1255,490
1256,491
1257,485
1258,471
1259,464
1260,461
1261,472
1262,475
1263,486
1264,502
1265,508
1266,524
1267,538
1268,535
1269,519
1270,508
1271,488
1272,494
1273,512
1274,524
1275,530
1276,539
1277,540
1278,534
1279,535
1280,537
1281,536
1282,520
1283,504
1284,481
1285,464
1286,466
1287,452
1288,441
1289,438
1290,441
1291,461
1292,474
1293,481
1294,487
1295,477
1296,464
1297,441
1298,415
1299,417
1300,433
1301,455
1302,464
1303,467
1304,487
1305,511
1306,523
1307,531
1308,536
1309,559
1310,579
1311,582
1312,584
1313,578
1314,584
1315,598
1316,602
1317,586
1318,551
1319,512
1320,484
1321,474
1322,473
1323,467
1324,470
1325,480
1326,484
1327,475
1328,464
1329,464
1330,470
1331,473
1332,470
1333,464
1334,471
1335,493
1336,513
1337,532
1338,521
1339,508
1340,504
1341,511
1342,500
1343,479
1344,464
1345,453
1346,453
1347,458
1348,463
1349,478
1350,489
1351,483
1352,469
1353,460
1354,470
1355,484
1356,494
1357,502
1358,491
1359,492
1360,499
1361,490
1362,477
1363,471
1364,469
1365,456
1366,472
1367,492
1368,480
1369,486
1370,483
1371,478
1372,464
1373,448
1374,450
1375,462
1376,476
1377,483
1378,485
1379,498
1380,501
1381,502
1382,504
1383,492
1384,476
1385,477
1386,488
1387,510
1388,527
1389,524
1390,522
1391,521
1392,503
1393,484
1394,478
1395,474
1396,489
1397,500
1398,511
1399,512
1400,506
1401,507
1402,498
1403,490
1404,495
1405,494
1406,498
1407,520
1408,532
1409,543
1410,550
1411,543
1412,532
1413,519
1414,524
1415,517
1416,503
1417,484
1418,464
1419,464
1420,480
1421,495
1422,511
1423,519
1424,527
1425,532
1426,535
1427,534
1428,531
1429,530
1430,533
1431,540
1432,535
1433,512
1434,507
1435,511
1436,505
1437,503
1438,514
1439,537
1440,555
1441,563
1442,541
1443,513
1444,504
1445,508
1446,522
1447,523
1448,516
1449,510
1450,494
1451,478
1452,467
1453,463
1454,467
1455,472
1456,475
1457,479
1458,486
1459,501
1460,515
1461,520
1462,522
1463,528
1464,537
1465,544
1466,547
1467,551
1468,558
1469,543
1470,535
1471,534
1472,518
1473,490
1474,486
1475,485
1476,485
1477,485
1478,491
1479,508
1480,518
1481,513
1482,500
1483,487
1484,495
1485,504
1486,503
1487,507
1488,508
1489,525
1490,525
1491,524
1492,514
1493,499
1494,491
1495,483
1496,490
1497,505
1498,510
1499,527
1500,539
1501,551
1502,543
1503,533
1504,537
1505,548
1506,560
1507,564
1508,550
1509,545
1510,541
1511,529
1512,502
1513,478
1514,464
1515,464
1516,477
1517,482
1518,481
1519,493
1520,507
1521,519
1522,527
1523,519
1524,529
1525,542
1526,560
1527,584
1528,605
1529,606
1530,602
1531,598
1532,581
1533,558
1534,549
1535,554
1536,560
1537,556
1538,545
1539,537
1540,545
1541,555
1542,564
1543,564
1544,574
1545,577
1546,570
1547,554
1548,532
1549,523
1550,526
1551,527
1552,510
1553,492
1554,501
1555,516
1556,534
1557,544
1558,535
1559,537
1560,558
1561,574
1562,562
1563,539
1564,526
1565,515
1566,509
1567,487
1568,469
1569,458
1570,452
1571,459
1572,478
1573,491
1574,481
1575,464
1576,456
1577,453
1578,445
1579,441
1580,447
1581,446
1582,439
1583,439
1584,460
1585,492
1586,523
1587,545
1588,554
1589,553
1590,558
1591,566
1592,558
1593,539
1594,514
1595,504
1596,502
1597,496
1598,479
1599,472
1600,486
1601,495
1602,490
1603,476
1604,467
1605,470
1606,485
1607,504
1608,518
1609,531
1610,547
1611,557
1612,545
1613,538
1614,543
1615,543
1616,540
1617,515
1618,479
1619,461
1620,463
1621,469
1622,465
1623,458
1624,461
1625,469
1626,471
1627,452
1628,445
1629,438
1630,403
1631,384
1632,398
1633,426
1634,458
1635,476
1636,483
1637,486
1638,482
1639,492
1640,511
1641,534
1642,538
1643,529
1644,519
1645,516
1646,520
1647,515
1648,498
1649,500
1650,506
1651,501
1652,480
1653,467
1654,469
1655,472
1656,477
1657,485
1658,477
1659,493
1660,513
1661,519
1662,522
1663,521
1664,528
1665,539
1666,552
1667,549
1668,530
1669,523
1670,493
1671,482
1672,458
1673,436
1674,440
1675,454
1676,476
1677,467
1678,448
1679,442
1680,439
1681,440
1682,454
1683,474
1684,500
1685,525
1686,541
1687,548
1688,548
1689,555
1690,562
1691,568
1692,559
1693,541
1694,527
1695,525
1696,533
1697,521
1698,528
1699,540
1700,536
1701,536
1702,542
1703,523
1704,525
1705,529
1706,522
1707,511
1708,509
1709,517
1710,525
1711,520
1712,509
1713,502
1714,515
1715,533
1716,544
1717,551
1718,547
1719,552
1720,547
1721,544
1722,550
1723,549
1724,547
1725,551
1726,542
1727,518
1728,486
1729,482
1730,494
1731,504
1732,501
1733,484
1734,484
1735,481
1736,480
1737,478
1738,467
1739,488
1740,491
1741,481
1742,495
1743,508
1744,532
1745,556
1746,564
1747,578
1748,589
1749,606
1750,616
1751,617
1752,610
1753,594
1754,580
1755,583
1756,591
1757,576
1758,553
1759,540
1760,517
1761,493
1762,475
1763,470
1764,483
1765,484
1766,487
1767,481
1768,457
1769,447
1770,458
1771,474
1772,485
1773,489
1774,510
1775,526
1776,527
1777,532
1778,515
1779,498
1780,500
1781,500
1782,497
1783,488
1784,496
1785,511
1786,525
1787,530
1788,523
1789,512
1790,500
1791,483
1792,478
1793,472
1794,472
1795,478
1796,490
1797,481
1798,462
1799,442
1800,437
1801,440
1802,438
1803,433
1804,447
1805,467
1806,494
1807,503
1808,495
1809,491
1810,486
1811,490
1812,498
1813,492
1814,495
1815,497
1816,499
1817,504
1818,499
1819,509
1820,520
1821,518
1822,515
1823,515
1824,528
1825,537
1826,546
1827,550
1828,537
1829,535
1830,541
1831,543
1832,542
1833,533
1834,543
1835,551
1836,549
1837,532
1838,519
1839,529
1840,547
1841,549
1842,520
1843,493
1844,493
1845,500
1846,502
1847,499
1848,470
1849,463
1850,472
1851,478
1852,477
1853,470
1854,470
1855,472
1856,495
1857,487
1858,460
1859,455
1860,467
1861,485
1862,492
1863,486
1864,481
1865,479
1866,491
1867,517
1868,530
1869,545
1870,571
1871,584
1872,588
1873,582
1874,580
1875,588
1876,596
1877,585
1878,572
1879,564
1880,551
1881,506
1882,474
1883,456
1884,464
1885,484
1886,499
1887,496
1888,478
1889,468
1890,473
1891,464
1892,472
1893,472
1894,485
1895,503
1896,524
1897,555
1898,574
1899,587
1900,601
1901,619
1902,609
1903,604
1904,607
1905,595
1906,575
1907,549
1908,521
1909,517
1910,516
1911,508
1912,501
1913,495
1914,482
1915,478
1916,490
1917,500
1918,500
1919,501
1920,506
1921,507
1922,495
1923,482
1924,490
1925,506
1926,517
1927,538
1928,539
1929,540
1930,541
1931,555
1932,582
1933,608
1934,630
1935,634
1936,636
1937,634
1938,611
1939,592
1940,580
1941,576
1942,567
1943,545
1944,531
1945,526
1946,524
1947,523
1948,521
1949,524
1950,530
1951,546
1952,553
1953,537
1954,533
1955,532
1956,523
1957,507
1958,478
1959,471
1960,471
1961,478
1962,481
1963,489
1964,514
1965,553
1966,574
1967,577
1968,566
1969,560
1970,555
1971,551
1972,540
1973,518
1974,508
1975,508
1976,506
1977,491
1978,477
1979,480
1980,483
1981,480
1982,472
1983,459
1984,455
1985,463
1986,474
1987,486
1988,489
1989,497
1990,511
1991,515
1992,517
1993,524
1994,526
1995,517
1996,505
1997,495
1998,481
1999,483
