timestamp,signal
0,507
1,510
2,515
3,519
4,493
5,480
6,478
7,486
8,489
9,473
10,479
11,492
12,496
13,515
14,507
15,513
16,505
17,487
18,493
19,481
20,474
21,474
22,458
23,452
24,432
25,437
26,449
27,456
28,458
29,462
30,475
31,489
32,499
33,500
34,496
35,508
36,526
37,528
38,527
39,527
40,543
41,553
42,552
43,543
44,533
45,531
46,528
47,516
48,514
49,510
50,526
51,529
52,527
53,531
54,533
55,550
56,563
57,566
58,558
59,525
60,517
61,528
62,524
63,512
64,502
65,504
66,508
67,512
68,527
69,515
70,527
71,543
72,551
73,556
74,540
75,526
76,521
77,521
78,538
79,544
80,558
81,570
82,577
83,582
84,582
85,568
86,556
87,547
88,525
89,495
90,460
91,446
92,459
93,469
94,460
95,455
96,457
97,473
98,488
99,493
100,508
101,524
102,529
103,536
104,522
105,518
106,518
107,508
108,498
109,466
110,463
111,474
112,475
113,479
114,463
115,480
116,495
117,500
118,497
119,483
120,500
121,522
122,532
123,547
124,537
125,536
126,536
127,519
128,504
129,486
130,486
131,497
132,495
133,490
134,481
135,494
136,498
137,498
138,502
139,494
140,502
141,506
142,492
143,476
144,466
145,467
146,474
147,479
148,484
149,470
150,476
151,492
152,519
153,515
154,496
155,491
156,488
157,487
158,485
159,482
160,503
161,531
162,544
163,558
164,543
165,538
166,542
167,544
168,562
169,550
170,548
171,551
172,552
173,554
174,537
175,536
176,532
177,541
178,544
179,520
180,502
181,473
182,455
183,447
184,435
185,438
186,441
187,443
188,458
189,464
190,495
191,519
192,526
193,529
194,522
195,519
196,516
197,515
198,523
199,521
200,538
201,556
202,553
203,542
204,518
205,510
206,487
207,457
208,444
209,431
210,436
211,456
212,476
213,483
214,480
215,502
216,517
217,521
218,511
219,484
220,470
221,470
222,476
223,463
224,454
225,446
226,450
227,467
228,466
229,452
230,474
231,492
232,500
233,504
234,496
235,505
236,520
237,528
238,531
239,527
240,541
241,544
242,526
243,528
244,511
245,496
246,491
247,477
248,475
249,470
250,485
251,503
252,519
253,545
254,553
255,548
256,545
257,536
258,543
259,537
260,547
261,548
262,547
263,539
264,521
265,515
266,518
267,522
268,532
269,529
270,518
271,523
272,539
273,548
274,516
275,497
276,502
277,518
278,523
279,508
280,520
281,545
282,549
283,547
284,528
285,528
286,514
287,522
288,538
289,533
290,544
291,561
292,558
293,543
294,513
295,510
296,524
297,531
298,539
299,538
300,542
301,554
302,560
303,561
304,543
305,527
306,507
307,492
308,496
309,494
310,511
311,517
312,494
313,483
314,468
315,462
316,491
317,496
318,498
319,493
320,496
321,496
322,504
323,504
324,487
325,487
326,487
327,499
328,494
329,471
330,450
331,436
332,440
333,428
334,410
335,402
336,401
337,419
338,440
339,449
340,451
341,442
342,460
343,483
344,489
345,499
346,506
347,517
348,513
349,498
350,497
351,518
352,541
353,552
354,548
355,549
356,557
357,572
358,575
359,560
360,566
361,568
362,561
363,554
364,514
365,489
366,471
367,463
368,474
369,475
370,487
371,496
372,495
373,503
374,502
375,508
376,502
377,479
378,460
379,439
380,440
381,449
382,451
383,448
384,448
385,468
386,494
387,516
388,527
389,529
390,554
391,562
392,547
393,541
394,525
395,531
396,541
397,532
398,521
399,515
400,535
401,555
402,557
403,555
404,528
405,515
406,512
407,508
408,519
409,517
410,526
411,533
412,523
413,512
414,492
415,506
416,512
417,504
418,506
419,492
420,497
421,513
422,540
423,563
424,567
425,546
426,519
427,518
428,515
429,508
430,506
431,513
432,520
433,524
434,505
435,505
436,516
437,528
438,537
439,531
440,529
441,525
442,536
443,543
444,537
445,546
446,572
447,579
448,577
449,561
450,552
451,551
452,543
453,533
454,501
455,504
456,501
457,492
458,501
459,484
460,471
461,459
462,466
463,493
464,509
465,515
466,509
467,502
468,501
469,490
470,502
471,508
472,502
473,500
474,504
475,524
476,552
477,552
478,536
479,526
480,531
481,536
482,517
483,513
484,512
485,520
486,524
487,541
488,549
489,532
490,521
491,523
492,523
493,540
494,531
495,533
496,542
497,549
498,567
499,564
500,575
501,594
502,595
503,584
504,564
505,564
506,554
507,538
508,544
509,543
510,549
511,534
512,509
513,497
514,483
515,478
516,482
517,487
518,497
519,498
520,519
521,540
522,546
523,555
524,539
525,528
526,512
527,510
528,521
529,520
530,524
531,532
532,536
533,544
534,531
535,535
536,541
537,547
538,539
539,524
540,513
541,507
542,507
543,521
544,523
545,518
546,507
547,509
548,496
549,468
550,446
551,433
552,445
553,450
554,441
555,456
556,476
557,499
558,518
559,512
560,519
561,521
562,504
563,496
564,473
565,469
566,473
567,474
568,474
569,476
570,495
571,511
572,519
573,535
574,534
575,551
576,558
577,536
578,515
579,492
580,490
581,502
582,505
583,506
584,503
585,496
586,508
587,517
588,518
589,499
590,495
591,494
592,474
593,448
594,424
595,430
596,430
597,419
598,412
599,397
600,414
601,449
602,474
603,497
604,506
605,515
606,509
607,497
608,480
609,438
610,420
611,417
612,429
613,440
614,437
615,460
616,486
617,504
618,514
619,505
620,494
621,476
622,460
623,448
624,429
625,421
626,411
627,396
628,398
629,412
630,435
631,447
632,455
633,474
634,480
635,489
636,494
637,481
638,478
639,473
640,483
641,493
642,488
643,485
644,478
645,496
646,508
647,504
648,513
649,516
650,531
651,545
652,549
653,536
654,538
655,546
656,541
657,505
658,484
659,481
660,494
661,513
662,519
663,530
664,537
665,550
666,564
667,565
668,570
669,556
670,561
671,583
672,603
673,614
674,617
675,621
676,615
677,598
678,592
679,581
680,597
681,609
682,600
683,585
684,561
685,546
686,530
687,508
688,501
689,490
690,493
691,496
692,492
693,478
694,459
695,471
696,496
697,530
698,536
699,530
700,521
701,511
702,504
703,504
704,504
705,505
706,510
707,521
708,508
709,484
710,496
711,492
712,470
713,461
714,437
715,439
716,451
717,461
718,489
719,509
720,537
721,551
722,539
723,509
724,470
725,471
726,476
727,492
728,504
729,497
730,500
731,507
732,508
733,521
734,516
735,522
736,517
737,518
738,519
739,504
740,504
741,518
742,529
743,547
744,548
745,550
746,546
747,542
748,534
749,521
750,508
751,511
752,493
753,495
754,481
755,456
756,443
757,461
758,493
759,524
760,516
761,515
762,511
763,498
764,473
765,468
766,479
767,490
768,512
769,512
770,513
771,524
772,536
773,558
774,555
775,561
776,564
777,536
778,527
779,505
780,495
781,484
782,479
783,485
784,481
785,489
786,503
787,509
788,511
789,494
790,496
791,504
792,508
793,503
794,483
795,487
796,503
797,487
798,499
799,499
800,523
801,556
802,578
803,585
804,567
805,552
806,539
807,525
808,518
809,491
810,487
811,504
812,504
813,517
814,520
815,531
816,531
817,525
818,536
819,544
820,553
821,547
822,536
823,522
824,483
825,459
826,443
827,428
828,432
829,428
830,450
831,467
832,490
833,502
834,483
835,467
836,471
837,493
838,486
839,468
840,450
841,431
842,440
843,453
844,455
845,471
846,493
847,524
848,543
849,531
850,530
851,535
852,543
853,550
854,544
855,535
856,524
857,521
858,516
859,502
860,491
861,490
862,498
863,476
864,449
865,432
866,439
867,453
868,482
869,491
870,518
871,529
872,519
873,518
874,503
875,497
876,494
877,493
878,494
879,478
880,496
881,525
882,541
883,561
884,557
885,556
886,547
887,529
888,522
889,508
890,501
891,503
892,510
893,517
894,506
895,525
896,547
897,549
898,537
899,519
900,519
901,524
902,521
903,517
904,508
905,504
906,501
907,501
908,512
909,517
910,540
911,548
912,554
913,567
914,573
915,586
916,592
917,585
918,582
919,563
920,567
921,579
922,578
923,576
924,565
925,551
926,534
927,517
928,503
929,497
930,488
931,490
932,462
933,462
934,466
935,484
936,500
937,513
938,518
939,519
940,521
941,518
942,515
943,516
944,511
945,524
946,539
947,549
948,563
949,558
950,540
951,527
952,521
953,510
954,491
955,494
956,507
957,515
958,520
959,499
960,504
961,521
962,533
963,540
964,520
965,520
966,521
967,521
968,522
969,513
970,518
971,521
972,517
973,518
974,502
975,500
976,495
977,492
978,497
979,479
980,475
981,476
982,475
983,481
984,489
985,517
986,534
987,534
988,530
989,524
990,531
991,542
992,530
993,519
994,513
995,513
996,518
997,507
998,516
999,521
1000,535
1001,540
1002,540
1003,539
1004,527
1005,523
1006,517
1007,512
1008,520
1009,501
1010,499
1011,508
1012,521
1013,536
1014,534
1015,548
1016,564
1017,576
1018,572
1019,562
1020,550
1021,539
1022,538
1023,540
1024,515
1025,490
1026,469
1027,464
1028,466
1029,460
1030,454
1031,443
1032,438
1033,441
1034,444
1035,458
1036,477
1037,475
1038,444
1039,408
1040,404
1041,408
1042,426
1043,453
1044,466
1045,481
1046,493
1047,502
1048,519
1049,510
1050,513
1051,481
1052,445
1053,425
1054,413
1055,428
1056,454
1057,480
1058,503
1059,504
1060,509
1061,510
1062,499
1063,495
1064,497
1065,518
1066,532
1067,530
1068,518
1069,504
1070,515
1071,537
1072,538
1073,534
1074,530
1075,544
1076,552
1077,555
1078,553
1079,541
1080,534
1081,524
1082,512
1083,498
1084,466
1085,461
1086,467
1087,476
1088,488
1089,479
1090,480
1091,494
1092,510
1093,524
1094,531
1095,545
1096,534
1097,509
1098,499
1099,476
1100,457
1101,457
1102,466
1103,480
1104,497
1105,523
1106,540
1107,544
1108,555
1109,544
1110,537
1111,524
1112,506
1113,499
1114,492
1115,501
1116,523
1117,535
1118,544
1119,534
1120,544
1121,555
1122,543
1123,532
1124,508
1125,505
1126,507
1127,516
1128,524
1129,526
1130,530
1131,535
1132,527
1133,520
1134,490
1135,479
1136,487
1137,475
1138,483
1139,487
1140,501
1141,520
1142,529
1143,541
1144,543
1145,552
1146,544
1147,527
1148,528
1149,517
1150,526
1151,534
1152,526
1153,519
1154,506
1155,514
1156,520
1157,519
1158,525
1159,525
1160,543
1161,553
1162,559
1163,564
1164,541
1165,540
1166,534
1167,518
1168,518
1169,511
1170,520
1171,538
1172,547
1173,547
1174,539
1175,534
1176,547
1177,554
1178,557
1179,544
1180,551
1181,560
1182,543
1183,518
1184,477
1185,458
1186,437
1187,412
1188,412
1189,418
1190,435
1191,451
1192,461
1193,463
1194,466
1195,484
1196,496
1197,493
1198,494
1199,480
1200,487
1201,504
1202,520
1203,544
1204,546
1205,542
1206,536
1207,530
1208,528
1209,527
1210,531
1211,528
1212,524
1213,533
1214,529
1215,538
1216,547
1217,555
1218,563
1219,548
1220,542
1221,546
1222,550
1223,554
1224,532
1225,519
1226,512
1227,508
1228,507
1229,497
1230,503
1231,509
1232,501
1233,487
1234,486
1235,496
1236,494
1237,472
1238,456
1239,454
1240,480
1241,505
1242,518
1243,523
1244,518
1245,512
1246,509
1247,496
1248,478
1249,468
1250,469
1251,485
1252,487
1253,487
1254,479
1255,476
1256,469
1257,464
1258,456
1259,438
1260,437
1261,455
1262,462
1263,462
1264,459
1265,475
1266,480
1267,464
1268,462
1269,448
1270,441
1271,451
1272,472
1273,487
1274,486
1275,493
1276,492
1277,475
1278,470
1279,473
1280,487
1281,509
1282,502
1283,502
1284,497
1285,505
1286,502
1287,485
1288,464
1289,441
1290,439
1291,455
1292,475
1293,497
1294,499
1295,514
1296,518
1297,491
1298,480
1299,470
1300,481
1301,482
1302,480
1303,495
1304,512
1305,535
1306,539
1307,532
1308,518
1309,501
1310,488
1311,478
1312,485
1313,482
1314,466
1315,452
1316,443
1317,450
1318,452
1319,460
1320,496
1321,518
1322,518
1323,512
1324,507
1325,525
1326,536
1327,535
1328,533
1329,519
1330,514
1331,509
1332,519
1333,545
1334,549
1335,554
1336,568
1337,574
1338,568
1339,547
1340,540
1341,542
1342,543
1343,544
1344,529
1345,531
1346,536
1347,519
1348,515
1349,503
1350,508
1351,524
1352,535
1353,536
1354,518
1355,510
1356,518
1357,502
1358,492
1359,482
1360,493
1361,506
1362,521
1363,525
1364,510
1365,507
1366,508
1367,502
1368,506
1369,500
1370,507
1371,537
1372,561
1373,560
1374,556
1375,566
1376,570
1377,578
1378,572
1379,565
1380,561
1381,552
1382,535
1383,526
1384,513
1385,515
1386,523
1387,527
1388,538
1389,531
1390,505
1391,491
1392,498
1393,511
1394,514
1395,507
1396,500
1397,497
1398,490
1399,472
1400,477
1401,488
1402,492
1403,499
1404,488
1405,496
1406,515
1407,520
1408,522
1409,513
1410,519
1411,530
1412,523
1413,518
1414,502
1415,507
1416,523
1417,534
1418,551
1419,558
1420,560
1421,548
1422,543
1423,551
1424,548
1425,547
1426,542
1427,536
1428,530
1429,505
1430,508
1431,520
1432,531
1433,557
1434,561
1435,568
1436,575
1437,580
1438,577
1439,569
1440,573
1441,575
1442,578
1443,564
1444,537
1445,500
1446,476
1447,476
1448,464
1449,436
1450,435
1451,432
1452,413
1453,393
1454,361
1455,352
1456,367
1457,383
1458,397
1459,391
1460,398
1461,415
1462,430
1463,450
1464,469
1465,484
1466,508
1467,518
1468,516
1469,481
1470,462
1471,452
1472,451
1473,459
1474,450
1475,455
1476,463
1477,468
1478,486
1479,511
1480,546
1481,537
1482,523
1483,514
1484,533
1485,549
1486,553
1487,540
1488,533
1489,537
1490,558
1491,575
1492,568
1493,561
1494,547
1495,551
1496,549
1497,548
1498,540
1499,520
1500,511
1501,505
1502,492
1503,500
1504,507
1505,519
1506,522
1507,523
1508,523
1509,511
1510,518
1511,531
1512,540
1513,551
1514,542
1515,548
1516,549
1517,553
1518,559
1519,548
1520,553
1521,564
1522,566
1523,566
1524,542
1525,542
1526,549
1527,552
1528,560
1529,562
1530,554
1531,544
1532,554
1533,561
1534,556
1535,546
1536,532
1537,543
1538,523
1539,482
1540,462
1541,465
1542,475
1543,477
1544,462
1545,460
1546,468
1547,473
1548,492
1549,503
1550,513
1551,516
1552,521
1553,527
1554,510
1555,501
1556,507
1557,510
1558,518
1559,513
1560,528
1561,538
1562,538
1563,534
1564,514
1565,507
1566,499
1567,493
1568,503
1569,506
1570,528
1571,545
1572,542
1573,540
1574,538
1575,556
1576,583
1577,586
1578,575
1579,560
1580,557
1581,559
1582,551
1583,537
1584,522
1585,517
1586,521
1587,512
1588,516
1589,507
1590,496
1591,493
1592,506
1593,520
1594,526
1595,534
1596,538
1597,541
1598,543
1599,528
1600,534
1601,537
1602,529
1603,515
1604,495
1605,487
1606,476
1607,470
1608,488
1609,496
1610,511
1611,514
1612,508
1613,512
1614,510
1615,506
1616,510
1617,509
1618,525
1619,521
1620,529
1621,548
1622,561
1623,539
1624,524
1625,521
1626,528
1627,523
1628,520
1629,502
1630,518
1631,519
1632,499
1633,485
1634,475
1635,472
1636,472
1637,469
1638,486
1639,510
1640,535
1641,564
1642,570
1643,558
1644,515
1645,498
1646,492
1647,476
1648,473
1649,458
1650,458
1651,475
1652,498
1653,509
1654,500
1655,504
1656,506
1657,479
1658,474
1659,465
1660,474
1661,482
1662,497
1663,504
1664,503
1665,497
1666,494
1667,498
1668,502
1669,490
1670,481
1671,479
1672,489
1673,499
1674,491
1675,501
1676,512
1677,528
1678,535
1679,531
1680,522
1681,512
1682,521
1683,534
1684,519
1685,503
1686,480
1687,460
1688,460
1689,455
1690,460
1691,464
1692,473
1693,478
1694,457
1695,462
1696,467
1697,475
1698,490
1699,488
1700,493
1701,510
1702,527
1703,558
1704,571
1705,581
1706,585
1707,579
1708,562
1709,527
1710,511
1711,508
1712,512
1713,520
1714,530
1715,542
1716,534
1717,510
1718,502
1719,502
1720,525
1721,535
1722,518
1723,497
1724,471
1725,449
1726,442
1727,438
1728,442
1729,431
1730,449
1731,451
1732,450
1733,460
1734,461
1735,482
1736,491
1737,486
1738,495
1739,494
1740,508
1741,516
1742,515
1743,507
1744,489
1745,488
1746,496
1747,496
1748,500
1749,477
1750,473
1751,480
1752,490
1753,503
1754,493
1755,482
1756,478
1757,476
1758,487
1759,485
1760,502
1761,512
1762,515
1763,522
1764,515
1765,527
1766,545
1767,553
1768,562
1769,560
1770,555
1771,554
1772,563
1773,565
1774,560
1775,565
1776,570
1777,560
1778,546
1779,541
1780,545
1781,547
1782,543
1783,547
1784,548
1785,551
1786,553
1787,539
1788,540
1789,530
1790,520
1791,516
1792,515
1793,528
1794,522
1795,524
1796,537
1797,528
1798,523
1799,513
1800,526
1801,543
1802,550
1803,553
1804,536
1805,524
1806,512
1807,499
1808,504
1809,500
1810,509
1811,522
1812,522
1813,520
1814,519
1815,526
1816,524
1817,523
1818,540
1819,539
1820,540
1821,537
1822,535
1823,540
1824,532
1825,537
1826,550
1827,543
1828,538
1829,545
1830,563
1831,573
1832,561
1833,550
1834,546
1835,548
1836,547
1837,523
1838,502
1839,463
1840,454
1841,459
1842,465
1843,467
1844,456
1845,475
1846,500
1847,507
1848,515
1849,487
1850,492
1851,497
1852,483
1853,470
1854,460
1855,476
1856,493
1857,494
1858,491
1859,482
1860,486
1861,507
1862,508
1863,491
1864,473
1865,485
1866,510
1867,528
1868,529
1869,515
1870,528
1871,540
1872,531
1873,533
1874,531
1875,546
1876,549
1877,551
1878,549
1879,536
1880,515
1881,500
1882,504
1883,505
1884,498
1885,488
1886,473
1887,469
1888,455
1889,433
1890,444
1891,464
1892,470
1893,467
1894,445
1895,432
1896,435
1897,448
1898,463
1899,464
1900,488
1901,484
1902,487
1903,498
1904,506
1905,505
1906,513
1907,512
1908,526
1909,526
1910,530
1911,531
1912,540
1913,556
1914,549
1915,537
1916,526
1917,511
1918,506
1919,512
1920,521
1921,523
1922,516
1923,511
1924,489
1925,473
1926,467
1927,478
1928,490
1929,491
1930,493
1931,495
1932,491
1933,492
1934,498
1935,510
1936,513
1937,510
1938,490
1939,459
1940,455
1941,456
1942,452
1943,464
1944,477
1945,493
1946,496
1947,489
1948,475
1949,454
1950,468
1951,487
1952,497
1953,499
1954,484
1955,487
1956,496
1957,494
1958,504
1959,486
1960,478
1961,473
1962,469
1963,455
1964,439
1965,441
1966,465
1967,501
1968,497
1969,485
1970,477
1971,475
1972,493
1973,524
1974,543
1975,561
1976,567
1977,554
1978,532
1979,501
1980,488
1981,467
1982,442
1983,451
1984,457
1985,468
1986,474
1987,481
1988,508
1989,510
1990,512
1991,521
1992,535
1993,547
1994,538
1995,545
1996,547
1997,546
1998,557
1999,554
