timestamp,signal
0,526
1,535
2,532
3,521
4,508
5,501
6,500
7,480
8,479
9,494
10,501
11,498
12,487
13,470
14,461
15,447
16,444
17,449
18,445
19,454
20,467
21,481
22,493
23,491
24,491
25,496
26,494
27,494
28,469
29,451
30,432
31,419
32,427
33,430
34,441
35,453
36,467
37,490
38,516
39,538
40,554
41,549
42,533
43,521
44,515
45,504
46,494
47,497
48,519
49,538
50,547
51,551
52,540
53,519
54,511
55,497
56,494
57,499
58,503
59,499
60,491
61,508
62,525
63,537
64,544
65,539
66,527
67,519
68,507
69,506
70,508
71,515
72,526
73,538
74,539
75,519
76,511
77,517
78,511
79,506
80,508
81,516
82,530
83,528
84,526
85,531
86,545
87,532
88,494
89,469
90,456
91,458
92,468
93,478
94,508
95,538
96,561
97,547
98,533
99,523
100,517
101,513
102,521
103,515
104,504
105,491
106,484
107,483
108,473
109,489
110,496
111,519
112,525
113,508
114,490
115,470
116,459
117,464
118,467
119,457
120,446
121,456
122,470
123,470
124,468
125,470
126,467
127,470
128,485
129,500
130,515
131,519
132,522
133,544
134,567
135,572
136,574
137,574
138,574
139,575
140,578
141,582
142,564
143,536
144,516
145,515
146,516
147,523
148,517
149,506
150,506
151,526
152,537
153,544
154,548
155,541
156,534
157,542
158,555
159,569
160,571
161,555
162,539
163,534
164,533
165,537
166,539
167,535
168,527
169,527
170,508
171,510
172,516
173,518
174,511
175,502
176,492
177,480
178,485
179,486
180,483
181,489
182,496
183,502
184,507
185,513
186,515
187,504
188,512
189,514
190,503
191,502
192,505
193,501
194,506
195,511
196,502
197,495
198,508
199,521
200,525
201,529
202,537
203,542
204,535
205,516
206,514
207,512
208,497
209,495
210,494
211,494
212,487
213,483
214,481
215,482
216,489
217,499
218,507
219,513
220,519
221,529
222,543
223,546
224,529
225,500
226,479
227,480
228,487
229,493
230,510
231,534
232,551
233,530
234,499
235,482
236,488
237,497
238,483
239,471
240,465
241,461
242,455
243,465
244,478
245,480
246,486
247,492
248,497
249,499
250,499
251,514
252,523
253,531
254,543
255,553
256,565
257,564
258,561
259,555
260,541
261,531
262,528
263,528
264,516
265,487
266,471
267,458
268,452
269,460
270,457
271,450
272,458
273,486
274,492
275,483
276,482
277,489
278,504
279,493
280,491
281,499
282,511
283,524
284,537
285,555
286,544
287,525
288,510
289,494
290,478
291,482
292,483
293,471
294,462
295,462
296,475
297,488
298,501
299,505
300,516
301,531
302,530
303,532
304,523
305,507
306,491
307,486
308,467
309,461
310,458
311,449
312,442
313,431
314,422
315,432
316,446
317,454
318,451
319,443
320,460
321,464
322,486
323,499
324,515
325,532
326,541
327,544
328,537
329,531
330,536
331,544
332,543
333,543
334,533
335,530
336,519
337,508
338,487
339,487
340,484
341,481
342,484
343,470
344,462
345,474
346,492
347,492
348,487
349,482
350,480
351,486
352,501
353,516
354,525
355,530
356,529
357,526
358,506
359,494
360,494
361,509
362,522
363,523
364,514
365,504
366,502
367,496
368,496
369,469
370,449
371,463
372,462
373,469
374,482
375,507
376,536
377,552
378,565
379,583
380,604
381,604
382,587
383,578
384,567
385,557
386,550
387,543
388,556
389,567
390,575
391,578
392,559
393,540
394,533
395,528
396,525
397,531
398,525
399,521
400,517
401,526
402,544
403,544
404,533
405,526
406,515
407,504
408,482
409,466
410,477
411,480
412,480
413,472
414,483
415,504
416,531
417,547
418,553
419,554
420,532
421,498
422,462
423,444
424,444
425,454
426,467
427,476
428,482
429,478
430,472
431,472
432,474
433,495
434,517
435,531
436,534
437,530
438,516
439,516
440,522
441,535
442,527
443,525
444,524
445,515
446,505
447,492
448,488
449,494
450,497
451,501
452,500
453,486
454,473
455,467
456,470
457,484
458,492
459,494
460,495
461,508
462,522
463,512
464,498
465,490
466,489
467,489
468,487
469,496
470,505
471,522
472,520
473,507
474,496
475,500
476,505
477,518
478,527
479,535
480,546
481,568
482,568
483,531
484,507
485,491
486,484
487,492
488,477
489,470
490,472
491,489
492,504
493,498
494,505
495,513
496,502
497,495
498,464
499,448
500,449
501,463
502,481
503,504
504,523
505,536
506,552
507,562
508,569
509,577
510,579
511,585
512,565
513,520
514,491
515,483
516,499
517,525
518,530
519,523
520,514
521,519
522,530
523,536
524,530
525,504
526,478
527,465
528,433
529,425
530,425
531,444
532,457
533,445
534,425
535,433
536,454
537,478
538,489
539,499
540,504
541,521
542,526
543,504
544,481
545,476
546,496
547,521
548,543
549,554
550,551
551,545
552,545
553,542
554,542
555,545
556,548
557,551
558,541
559,555
560,550
561,564
562,580
563,589
564,593
565,579
566,563
567,544
568,514
569,499
570,484
571,487
572,493
573,483
574,481
575,479
576,484
577,494
578,487
579,480
580,482
581,491
582,503
583,513
584,530
585,542
586,540
587,530
588,527
589,515
590,516
591,520
592,515
593,513
594,515
595,520
596,535
597,539
598,537
599,545
600,552
601,557
602,566
603,578
604,582
605,571
606,553
607,531
608,513
609,513
610,519
611,527
612,532
613,525
614,504
615,481
616,478
617,483
618,496
619,495
620,493
621,495
622,496
623,504
624,511
625,515
626,521
627,503
628,507
629,520
630,529
631,526
632,524
633,512
634,497
635,492
636,502
637,510
638,497
639,489
640,496
641,511
642,511
643,512
644,512
645,493
646,484
647,483
648,481
649,492
650,499
651,503
652,504
653,502
654,504
655,501
656,508
657,508
658,486
659,476
660,482
661,484
662,482
663,475
664,481
665,486
666,488
667,483
668,488
669,486
670,488
671,496
672,506
673,500
674,501
675,514
676,514
677,513
678,501
679,500
680,503
681,509
682,512
683,499
684,467
685,455
686,453
687,452
688,467
689,488
690,501
691,510
692,528
693,533
694,531
695,536
696,542
697,539
698,524
699,507
700,488
701,482
702,477
703,466
704,463
705,471
706,473
707,475
708,477
709,481
710,495
711,520
712,531
713,531
714,525
715,532
716,530
717,526
718,523
719,516
720,499
721,483
722,483
723,473
724,468
725,468
726,471
727,484
728,501
729,518
730,506
731,502
732,506
733,497
734,489
735,489
736,507
737,529
738,538
739,551
740,563
741,559
742,551
743,540
744,531
745,515
746,497
747,495
748,478
749,473
750,453
751,451
752,450
753,454
754,463
755,459
756,459
757,471
758,480
759,489
760,504
761,518
762,522
763,514
764,504
765,496
766,487
767,482
768,479
769,479
770,491
771,512
772,542
773,559
774,560
775,546
776,531
777,521
778,521
779,531
780,537
781,560
782,575
783,585
784,594
785,595
786,593
787,585
788,555
789,541
790,527
791,523
792,515
793,505
794,496
795,489
796,480
797,469
798,463
799,450
800,449
801,473
802,481
803,486
804,482
805,492
806,512
807,524
808,536
809,552
810,557
811,558
812,564
813,564
814,559
815,555
816,563
817,570
818,571
819,567
820,552
821,554
822,559
823,556
824,553
825,550
826,563
827,575
828,573
829,573
830,575
831,573
832,563
833,552
834,550
835,547
836,544
837,535
838,521
839,518
840,531
841,543
842,541
843,520
844,515
845,518
846,505
847,500
848,496
849,503
850,514
851,524
852,547
853,551
854,542
855,535
856,534
857,542
858,544
859,535
860,528
861,534
862,523
863,488
864,464
865,460
866,464
867,473
868,486
869,503
870,509
871,519
872,523
873,519
874,521
875,531
876,536
877,542
878,547
879,537
880,518
881,510
882,509
883,499
884,488
885,488
886,494
887,493
888,481
889,477
890,483
891,502
892,523
893,536
894,551
895,527
896,523
897,538
898,556
899,555
900,554
901,548
902,539
903,524
904,521
905,523
906,521
907,519
908,514
909,522
910,525
911,516
912,506
913,481
914,451
915,441
916,445
917,452
918,454
919,457
920,465
921,470
922,472
923,473
924,484
925,491
926,500
927,500
928,496
929,482
930,468
931,486
932,488
933,494
934,489
935,488
936,495
937,502
938,502
939,507
940,505
941,493
942,479
943,473
944,466
945,472
946,495
947,516
948,522
949,520
950,513
951,500
952,492
953,476
954,464
955,455
956,457
957,434
958,430
959,456
960,458
961,464
962,483
963,500
964,513
965,531
966,508
967,507
968,499
969,497
970,492
971,495
972,512
973,518
974,511
975,508
976,521
977,534
978,544
979,551
980,549
981,534
982,520
983,502
984,492
985,489
986,497
987,504
988,506
989,497
990,485
991,476
992,470
993,466
994,473
995,487
996,504
997,512
998,518
999,515
1000,508
1001,506
1002,507
1003,514
1004,536
1005,552
1006,568
1007,571
1008,570
1009,559
1010,537
1011,518
1012,496
1013,465
1014,458
1015,466
1016,486
1017,508
1018,519
1019,520
1020,509
1021,507
1022,510
1023,513
1024,514
1025,520
1026,522
1027,517
1028,507
1029,506
1030,503
1031,497
1032,498
1033,501
1034,500
1035,502
1036,518
1037,527
1038,518
1039,511
1040,504
1041,499
1042,511
1043,512
1044,506
1045,497
1046,496
1047,503
1048,505
1049,504
1050,490
1051,489
1052,491
1053,481
1054,473
1055,467
1056,464
1057,477
1058,477
1059,471
1060,472
1061,479
1062,496
1063,500
1064,492
1065,496
1066,499
1067,509
1068,516
1069,513
1070,504
1071,491
1072,488
1073,478
1074,468
1075,470
1076,478
1077,486
1078,480
1079,476
1080,470
1081,477
1082,483
1083,484
1084,494
1085,516
1086,535
1087,540
1088,537
1089,539
1090,529
1091,519
1092,514
1093,494
1094,474
1095,463
1096,461
1097,467
1098,476
1099,485
1100,500
1101,519
1102,527
1103,511
1104,495
1105,484
1106,485
1107,492
1108,480
1109,481
1110,481
1111,480
1112,500
1113,496
1114,504
1115,498
1116,498
1117,506
1118,508
1119,517
1120,520
1121,515
1122,507
1123,496
1124,475
1125,470
1126,457
1127,456
1128,447
1129,448
1130,468
1131,484
1132,488
1133,488
1134,502
1135,513
1136,523
1137,509
1138,498
1139,503
1140,511
1141,512
1142,507
1143,514
1144,516
1145,508
1146,504
1147,511
1148,528
1149,537
1150,532
1151,526
1152,532
1153,543
1154,527
1155,510
1156,507
1157,510
1158,512
1159,515
1160,523
1161,535
1162,550
1163,556
1164,559
1165,545
1166,529
1167,531
1168,537
1169,534
1170,537
1171,552
1172,556
1173,548
1174,539
1175,540
1176,549
1177,552
1178,551
1179,537
1180,518
1181,511
1182,516
1183,486
1184,471
1185,467
1186,463
1187,466
1188,459
1189,461
1190,473
1191,494
1192,521
1193,521
1194,507
1195,494
1196,501
1197,516
1198,535
1199,550
1200,553
1201,562
1202,579
1203,597
1204,608
1205,611
1206,607
1207,597
1208,592
1209,590
1210,581
1211,579
1212,580
1213,574
1214,566
1215,551
1216,543
1217,540
1218,540
1219,541
1220,534
1221,527
1222,508
1223,492
1224,485
1225,481
1226,483
1227,496
1228,525
1229,531
1230,550
1231,567
1232,573
1233,575
1234,572
1235,567
1236,558
1237,552
1238,555
1239,552
1240,547
1241,544
1242,540
1243,526
1244,517
1245,524
1246,561
1247,563
1248,570
1249,571
1250,575
1251,573
1252,557
1253,543
1254,542
1255,534
1256,536
1257,542
1258,543
1259,546
1260,547
1261,545
1262,546
1263,531
1264,507
1265,487
1266,481
1267,481
1268,478
1269,477
1270,482
1271,480
1272,467
1273,457
1274,455
1275,464
1276,475
1277,488
1278,505
1279,518
1280,524
1281,532
1282,528
1283,532
1284,531
1285,528
1286,526
1287,513
1288,491
1289,480
1290,467
1291,448
1292,448
1293,450
1294,457
1295,467
1296,474
1297,491
1298,502
1299,506
1300,511
1301,507
1302,491
1303,486
1304,484
1305,487
1306,504
1307,519
1308,511
1309,512
1310,531
1311,544
1312,561
1313,571
1314,572
1315,568
1316,568
1317,574
1318,556
1319,544
1320,547
1321,547
1322,554
1323,533
1324,515
1325,508
1326,505
1327,509
1328,511
1329,519
1330,519
1331,512
1332,500
1333,479
1334,463
1335,447
1336,433
1337,449
1338,451
1339,459
1340,460
1341,447
1342,434
1343,427
1344,427
1345,439
1346,465
1347,489
1348,502
1349,494
1350,473
1351,458
1352,470
1353,476
1354,476
1355,468
1356,468
1357,480
1358,488
1359,484
1360,477
1361,483
1362,505
1363,520
1364,516
1365,515
1366,527
1367,538
1368,535
1369,536
1370,540
1371,540
1372,541
1373,522
1374,499
1375,491
1376,502
1377,514
1378,510
1379,508
1380,516
1381,530
1382,536
1383,532
1384,526
1385,512
1386,497
1387,496
1388,494
1389,487
1390,486
1391,496
1392,501
1393,485
1394,471
1395,465
1396,476
1397,486
1398,485
1399,489
1400,497
1401,515
1402,522
1403,522
1404,509
1405,504
1406,499
1407,496
1408,503
1409,508
1410,511
1411,521
1412,539
1413,563
1414,575
1415,575
1416,576
1417,572
1418,567
1419,560
1420,552
1421,527
1422,518
1423,530
1424,532
1425,525
1426,525
1427,519
1428,525
1429,522
1430,513
1431,519
1432,536
1433,527
1434,518
1435,514
1436,531
1437,558
1438,572
1439,574
1440,573
1441,568
1442,562
1443,552
1444,553
1445,555
1446,553
1447,550
1448,549
1449,543
1450,537
1451,523
1452,519
1453,524
1454,536
1455,542
1456,536
1457,533
1458,530
1459,527
1460,527
1461,538
1462,551
1463,539
1464,536
1465,542
1466,553
1467,542
1468,534
1469,530
1470,529
1471,530
1472,534
1473,516
1474,504
1475,502
1476,510
1477,521
1478,521
1479,507
1480,488
1481,479
1482,479
1483,482
1484,488
1485,484
1486,477
1487,471
1488,462
1489,473
1490,472
1491,484
1492,495
1493,497
1494,496
1495,506
1496,521
1497,524
1498,520
1499,515
1500,509
1501,489
1502,477
1503,480
1504,472
1505,479
1506,483
1507,490
1508,491
1509,494
1510,489
1511,480
1512,461
1513,457
1514,464
1515,463
1516,459
1517,455
1518,448
1519,443
1520,438
1521,436
1522,429
1523,434
1524,444
1525,446
1526,457
1527,461
1528,451
1529,448
1530,439
1531,440
1532,445
1533,448
1534,459
1535,469
1536,475
1537,487
1538,497
1539,507
1540,510
1541,523
1542,532
1543,545
1544,562
1545,561
1546,559
1547,548
1548,536
1549,526
1550,524
1551,526
1552,523
1553,523
1554,518
1555,515
1556,515
1557,514
1558,497
1559,477
1560,468
1561,476
1562,487
1563,490
1564,493
1565,488
1566,490
1567,502
1568,501
1569,499
1570,500
1571,510
1572,514
1573,512
1574,511
1575,507
1576,503
1577,507
1578,525
1579,529
1580,517
1581,506
1582,508
1583,496
1584,480
1585,472
1586,481
1587,490
1588,487
1589,486
1590,483
1591,474
1592,473
1593,473
1594,466
1595,471
1596,481
1597,493
1598,492
1599,496
1600,511
1601,517
1602,521
1603,517
1604,513
1605,508
1606,508
1607,517
1608,519
1609,523
1610,529
1611,529
1612,519
1613,497
1614,484
1615,468
1616,469
1617,474
1618,468
1619,468
1620,472
1621,484
1622,484
1623,499
1624,496
1625,474
1626,460
1627,466
1628,467
1629,468
1630,465
1631,476
1632,484
1633,492
1634,499
1635,493
1636,489
1637,490
1638,495
1639,505
1640,502
1641,498
1642,502
1643,500
1644,503
1645,515
1646,522
1647,526
1648,531
1649,536
1650,543
1651,557
1652,571
1653,579
1654,578
1655,570
1656,559
1657,549
1658,530
1659,507
1660,484
1661,479
1662,474
1663,470
1664,468
1665,490
1666,518
1667,527
1668,547
1669,554
1670,546
1671,560
1672,557
1673,573
1674,594
1675,604
1676,604
1677,600
1678,609
1679,624
1680,632
1681,615
1682,585
1683,561
1684,534
1685,516
1686,516
1687,533
1688,550
1689,546
1690,533
1691,526
1692,524
1693,527
1694,525
1695,523
1696,531
1697,539
1698,540
1699,538
1700,536
1701,538
1702,542
1703,535
1704,527
1705,512
1706,500
1707,499
1708,494
1709,486
1710,485
1711,490
1712,490
1713,481
1714,463
1715,461
1716,479
1717,497
1718,490
1719,484
1720,484
1721,482
1722,484
1723,477
1724,483
1725,491
1726,486
1727,484
1728,488
1729,490
1730,483
1731,494
1732,513
1733,518
1734,521
1735,520
1736,528
1737,518
1738,499
1739,491
1740,494
1741,496
1742,491
1743,479
1744,467
1745,453
1746,466
1747,486
1748,496
1749,505
1750,508
1751,510
1752,515
1753,513
1754,517
1755,523
1756,522
1757,524
1758,528
1759,534
1760,538
1761,532
1762,536
1763,506
1764,484
1765,470
1766,464
1767,472
1768,469
1769,454
1770,446
1771,457
1772,473
1773,494
1774,501
1775,494
1776,491
1777,496
1778,499
1779,501
1780,489
1781,488
1782,508
1783,529
1784,535
1785,543
1786,555
1787,560
1788,537
1789,512
1790,512
1791,498
1792,487
1793,463
1794,461
1795,484
1796,507
1797,508
1798,522
1799,530
1800,536
1801,556
1802,571
1803,594
1804,600
1805,579
1806,557
1807,536
1808,526
1809,517
1810,492
1811,463
1812,448
1813,447
1814,450
1815,449
1816,456
1817,472
1818,475
1819,473
1820,481
1821,501
1822,499
1823,487
1824,486
1825,491
1826,501
1827,511
1828,522
1829,535
1830,547
1831,560
1832,564
1833,553
1834,539
1835,522
1836,519
1837,518
1838,513
1839,510
1840,510
1841,508
1842,508
1843,508
1844,515
1845,520
1846,524
1847,533
1848,533
1849,530
1850,524
1851,529
1852,517
1853,502
1854,499
1855,512
1856,520
1857,521
1858,521
1859,507
1860,485
1861,477
1862,485
1863,501
1864,510
1865,516
1866,533
1867,547
1868,561
1869,563
1870,565
1871,577
1872,587
1873,572
1874,555
1875,543
1876,532
1877,523
1878,514
1879,501
1880,489
1881,485
1882,486
1883,475
1884,479
1885,460
1886,458
1887,470
1888,485
1889,496
1890,502
1891,500
1892,487
1893,460
1894,457
1895,470
1896,476
1897,456
1898,443
1899,430
1900,439
1901,459
1902,472
1903,487
1904,497
1905,500
1906,503
1907,502
1908,499
1909,511
1910,505
1911,502
1912,503
1913,493
1914,482
1915,475
1916,476
1917,482
1918,487
1919,493
1920,491
1921,504
1922,509
1923,506
1924,499
1925,490
1926,486
1927,491
1928,515
1929,530
1930,527
1931,509
1932,486
1933,482
1934,495
1935,510
1936,527
1937,548
1938,570
1939,580
1940,575
1941,564
1942,538
1943,509
1944,486
1945,449
1946,440
1947,449
1948,465
1949,486
1950,500
1951,504
1952,494
1953,491
1954,494
1955,495
1956,504
1957,515
1958,519
1959,512
1960,511
1961,526
1962,542
1963,547
1964,535
1965,530
1966,527
1967,512
1968,502
1969,496
1970,493
1971,493
1972,489
1973,475
1974,477
1975,482
1976,497
1977,518
1978,527
1979,535
1980,559
1981,588
1982,593
1983,597
1984,601
1985,588
1986,565
1987,545
1988,528
1989,514
1990,505
1991,479
1992,461
1993,468
1994,465
1995,463
1996,471
1997,482
1998,504
1999,515
