timestamp,signal
0,518
1,530
2,537
3,519
4,513
5,502
6,504
7,506
8,493
9,477
10,464
11,467
12,473
13,466
14,456
15,451
16,462
17,486
18,491
19,492
20,476
21,483
22,470
23,470
24,479
25,478
26,476
27,479
28,485
29,505
30,514
31,523
32,532
33,547
34,567
35,568
36,562
37,552
38,555
39,567
40,572
41,578
42,567
43,558
44,557
45,557
46,547
47,539
48,548
49,524
50,514
51,518
52,536
53,536
54,514
55,484
56,471
57,481
58,492
59,511
60,518
61,541
62,534
63,534
64,528
65,509
66,497
67,482
68,467
69,476
70,468
71,473
72,476
73,465
74,470
75,463
76,459
77,454
78,461
79,475
80,483
81,491
82,492
83,493
84,513
85,539
86,564
87,574
88,564
89,559
90,563
91,578
92,566
93,554
94,547
95,536
96,527
97,532
98,519
99,523
100,531
101,544
102,551
103,538
104,529
105,510
106,518
107,512
108,513
109,518
110,515
111,508
112,501
113,486
114,485
115,486
116,498
117,514
118,539
119,566
120,568
121,556
122,551
123,562
124,571
125,562
126,554
127,550
128,540
129,527
130,501
131,495
132,504
133,503
134,496
135,491
136,485
137,486
138,473
139,466
140,454
141,454
142,452
143,471
144,464
145,476
146,504
147,522
148,520
149,519
150,504
151,508
152,513
153,508
154,516
155,518
156,529
157,550
158,563
159,572
160,568
161,565
162,545
163,525
164,522
165,508
166,504
167,509
168,506
169,502
170,486
171,474
172,465
173,461
174,457
175,454
176,466
177,484
178,496
179,503
180,486
181,461
182,444
183,443
184,451
185,469
186,495
187,513
188,530
189,532
190,519
191,503
192,487
193,491
194,484
195,467
196,473
197,485
198,493
199,493
200,491
201,512
202,532
203,533
204,530
205,519
206,522
207,527
208,519
209,512
210,491
211,482
212,476
213,463
214,461
215,456
216,471
217,492
218,489
219,487
220,491
221,496
222,494
223,484
224,487
225,493
226,502
227,518
228,517
229,515
230,515
231,531
232,536
233,512
234,496
235,478
236,477
237,479
238,467
239,455
240,449
241,469
242,487
243,496
244,515
245,512
246,530
247,527
248,523
249,511
250,488
251,465
252,452
253,444
254,447
255,457
256,487
257,512
258,531
259,548
260,543
261,544
262,542
263,549
264,539
265,505
266,495
267,504
268,523
269,516
270,482
271,464
272,467
273,480
274,502
275,511
276,524
277,523
278,507
279,495
280,496
281,509
282,519
283,508
284,497
285,486
286,486
287,498
288,515
289,543
290,558
291,574
292,593
293,592
294,580
295,536
296,513
297,506
298,514
299,533
300,537
301,533
302,523
303,525
304,533
305,523
306,509
307,513
308,512
309,509
310,504
311,508
312,523
313,514
314,508
315,505
316,496
317,491
318,484
319,489
320,498
321,513
322,498
323,478
324,451
325,418
326,417
327,449
328,467
329,482
330,499
331,504
332,522
333,525
334,531
335,523
336,526
337,529
338,524
339,540
340,546
341,552
342,559
343,562
344,573
345,565
346,564
347,559
348,556
349,555
350,547
351,539
352,536
353,545
354,538
355,527
356,518
357,499
358,495
359,501
360,520
361,539
362,532
363,537
364,544
365,545
366,541
367,516
368,492
369,496
370,495
371,501
372,500
373,495
374,498
375,505
376,496
377,490
378,496
379,494
380,464
381,448
382,454
383,461
384,465
385,468
386,487
387,516
388,530
389,529
390,520
391,515
392,515
393,511
394,510
395,508
396,519
397,528
398,533
399,533
400,517
401,516
402,530
403,519
404,506
405,490
406,489
407,495
408,502
409,511
410,509
411,513
412,517
413,509
414,508
415,500
416,506
417,520
418,517
419,514
420,506
421,505
422,515
423,497
424,480
425,460
426,447
427,448
428,448
429,459
430,466
431,468
432,454
433,442
434,452
435,451
436,461
437,476
438,481
439,484
440,489
441,505
442,518
443,525
444,531
445,520
446,523
447,534
448,531
449,525
450,508
451,525
452,534
453,544
454,565
455,572
456,572
457,577
458,562
459,547
460,531
461,531
462,535
463,526
464,508
465,504
466,483
467,486
468,504
469,501
470,477
471,476
472,494
473,519
474,528
475,523
476,516
477,512
478,521
479,534
480,519
481,496
482,486
483,486
484,487
485,483
486,483
487,484
488,499
489,505
490,503
491,504
492,515
493,524
494,542
495,545
496,549
497,549
498,528
499,520
500,519
501,531
502,523
503,513
504,507
505,497
506,512
507,523
508,534
509,539
510,531
511,525
512,531
513,519
514,521
515,510
516,519
517,520
518,513
519,508
520,501
521,500
522,507
523,483
524,452
525,432
526,428
527,444
528,440
529,430
530,406
531,398
532,415
533,440
534,468
535,479
536,500
537,523
538,526
539,536
540,549
541,548
542,552
543,548
544,546
545,524
546,502
547,494
548,489
549,488
550,478
551,488
552,495
553,507
554,520
555,515
556,515
557,527
558,546
559,550
560,547
561,547
562,546
563,560
564,568
565,570
566,568
567,561
568,563
569,565
570,553
571,549
572,551
573,556
574,553
575,545
576,525
577,507
578,508
579,500
580,484
581,481
582,479
583,490
584,493
585,495
586,497
587,487
588,488
589,486
590,483
591,488
592,482
593,475
594,470
595,471
596,483
597,502
598,518
599,523
600,510
601,506
602,513
603,521
604,520
605,510
606,513
607,518
608,520
609,529
610,526
611,527
612,533
613,545
614,542
615,529
616,530
617,518
618,513
619,524
620,525
621,519
622,519
623,527
624,535
625,543
626,549
627,543
628,540
629,526
630,519
631,518
632,524
633,537
634,540
635,531
636,531
637,546
638,566
639,556
640,556
641,568
642,576
643,578
644,575
645,541
646,522
647,519
648,512
649,503
650,479
651,462
652,461
653,467
654,486
655,490
656,502
657,515
658,510
659,508
660,508
661,513
662,520
663,512
664,511
665,517
666,518
667,515
668,495
669,483
670,468
671,473
672,488
673,482
674,470
675,469
676,478
677,489
678,490
679,500
680,497
681,507
682,495
683,493
684,483
685,475
686,475
687,495
688,497
689,508
690,494
691,499
692,508
693,500
694,504
695,499
696,508
697,515
698,526
699,538
700,536
701,541
702,536
703,524
704,528
705,526
706,533
707,545
708,560
709,574
710,577
711,578
712,579
713,588
714,574
715,537
716,507
717,473
718,471
719,488
720,507
721,515
722,513
723,514
724,501
725,472
726,453
727,449
728,461
729,476
730,480
731,491
732,509
733,530
734,552
735,556
736,563
737,575
738,564
739,553
740,542
741,529
742,519
743,494
744,485
745,485
746,498
747,524
748,540
749,539
750,529
751,535
752,535
753,529
754,523
755,511
756,513
757,531
758,545
759,534
760,533
761,539
762,543
763,537
764,532
765,528
766,542
767,558
768,540
769,544
770,541
771,530
772,523
773,503
774,496
775,496
776,501
777,502
778,490
779,483
780,488
781,502
782,514
783,503
784,487
785,483
786,489
787,488
788,472
789,468
790,457
791,448
792,424
793,416
794,422
795,415
796,425
797,445
798,460
799,472
800,470
801,492
802,518
803,519
804,524
805,519
806,521
807,516
808,510
809,529
810,531
811,526
812,514
813,502
814,512
815,517
816,526
817,527
818,521
819,528
820,542
821,548
822,557
823,538
824,523
825,499
826,476
827,462
828,468
829,480
830,490
831,493
832,515
833,532
834,541
835,537
836,530
837,531
838,521
839,500
840,479
841,473
842,473
843,474
844,464
845,451
846,450
847,464
848,469
849,486
850,465
851,464
852,457
853,448
854,461
855,472
856,496
857,516
858,508
859,491
860,461
861,433
862,424
863,429
864,420
865,416
866,420
867,431
868,435
869,419
870,395
871,397
872,419
873,447
874,480
875,480
876,474
877,487
878,496
879,494
880,484
881,472
882,466
883,463
884,478
885,495
886,523
887,524
888,512
889,499
890,479
891,483
892,497
893,508
894,515
895,529
896,559
897,584
898,584
899,577
900,564
901,561
902,558
903,548
904,559
905,547
906,533
907,522
908,512
909,509
910,503
911,510
912,521
913,532
914,517
915,499
916,503
917,508
918,526
919,539
920,528
921,508
922,493
923,502
924,507
925,511
926,516
927,513
928,508
929,500
930,485
931,492
932,511
933,517
934,533
935,539
936,538
937,533
938,528
939,510
940,488
941,477
942,468
943,473
944,477
945,484
946,505
947,524
948,528
949,529
950,524
951,531
952,531
953,530
954,541
955,543
956,542
957,544
958,544
959,546
960,551
961,558
962,544
963,531
964,528
965,514
966,512
967,515
968,508
969,508
970,497
971,498
972,509
973,496
974,488
975,467
976,462
977,466
978,472
979,467
980,467
981,479
982,497
983,508
984,521
985,535
986,549
987,553
988,547
989,540
990,530
991,530
992,527
993,510
994,506
995,498
996,490
997,494
998,488
999,487
1000,490
1001,504
1002,490
1003,466
1004,451
1005,446
1006,448
1007,473
1008,493
1009,514
1010,531
1011,551
1012,558
1013,566
1014,561
1015,538
1016,529
1017,531
1018,526
1019,515
1020,499
1021,487
1022,484
1023,487
1024,495
1025,506
1026,526
1027,544
1028,546
1029,551
1030,543
1031,538
1032,529
1033,544
1034,560
1035,567
1036,582
1037,583
1038,600
1039,612
1040,609
1041,595
1042,580
1043,583
1044,575
1045,548
1046,535
1047,516
1048,519
1049,540
1050,543
1051,548
1052,559
1053,563
1054,575
1055,576
1056,583
1057,580
1058,563
1059,548
1060,533
1061,516
1062,495
1063,479
1064,497
1065,487
1066,500
1067,507
1068,506
1069,512
1070,512
1071,519
1072,525
1073,525
1074,521
1075,501
1076,480
1077,471
1078,468
1079,461
1080,449
1081,437
1082,436
1083,431
1084,427
1085,420
1086,435
1087,456
1088,469
1089,487
1090,500
1091,512
1092,522
1093,512
1094,489
1095,453
1096,451
1097,460
1098,448
1099,445
1100,428
1101,411
1102,413
1103,422
1104,413
1105,407
1106,415
1107,430
1108,445
1109,469
1110,468
1111,476
1112,477
1113,481
1114,484
1115,460
1116,449
1117,444
1118,440
1119,452
1120,468
1121,490
1122,508
1123,493
1124,484
1125,483
1126,494
1127,501
1128,508
1129,527
1130,533
1131,536
1132,537
1133,549
1134,560
1135,560
1136,553
1137,535
1138,528
1139,527
1140,516
1141,497
1142,481
1143,462
1144,440
1145,423
1146,430
1147,444
1148,450
1149,459
1150,461
1151,457
1152,435
1153,420
1154,423
1155,422
1156,431
1157,440
1158,457
1159,484
1160,499
1161,508
1162,509
1163,510
1164,515
1165,504
1166,497
1167,477
1168,457
1169,446
1170,440
1171,459
1172,481
1173,488
1174,496
1175,503
1176,515
1177,528
1178,527
1179,529
1180,540
1181,554
1182,564
1183,575
1184,577
1185,569
1186,573
1187,579
1188,586
1189,587
1190,580
1191,577
1192,566
1193,564
1194,552
1195,530
1196,526
1197,526
1198,530
1199,537
1200,522
1201,515
1202,515
1203,516
1204,534
1205,545
1206,558
1207,557
1208,561
1209,576
1210,572
1211,584
1212,556
1213,546
1214,553
1215,556
1216,579
1217,606
1218,600
1219,580
1220,546
1221,526
1222,528
1223,522
1224,517
1225,513
1226,510
1227,505
1228,496
1229,501
1230,519
1231,538
1232,549
1233,540
1234,527
1235,500
1236,490
1237,496
1238,486
1239,482
1240,466
1241,471
1242,484
1243,492
1244,508
1245,500
1246,508
1247,515
1248,521
1249,524
1250,520
1251,531
1252,544
1253,559
1254,565
1255,555
1256,554
1257,562
1258,574
1259,582
1260,573
1261,575
1262,573
1263,573
1264,568
1265,569
1266,567
1267,554
1268,547
1269,542
1270,543
1271,546
1272,542
1273,544
1274,535
1275,520
1276,509
1277,493
1278,490
1279,501
1280,484
1281,485
1282,479
1283,469
1284,458
1285,439
1286,419
1287,409
1288,402
1289,411
1290,432
1291,435
1292,448
1293,455
1294,462
1295,472
1296,468
1297,482
1298,485
1299,493
1300,494
1301,495
1302,498
1303,505
1304,526
1305,527
1306,527
1307,535
1308,537
1309,546
1310,557
1311,562
1312,558
1313,552
1314,544
1315,532
1316,535
1317,538
1318,521
1319,499
1320,474
1321,465
1322,448
1323,438
1324,446
1325,463
1326,480
1327,511
1328,495
1329,498
1330,491
1331,478
1332,471
1333,460
1334,471
1335,486
1336,510
1337,531
1338,546
1339,559
1340,566
1341,568
1342,559
1343,536
1344,518
1345,497
1346,501
1347,515
1348,519
1349,529
1350,528
1351,542
1352,551
1353,554
1354,564
1355,557
1356,559
1357,555
1358,531
1359,506
1360,478
1361,464
1362,455
1363,460
1364,471
1365,486
1366,499
1367,504
1368,521
1369,536
1370,550
1371,561
1372,558
1373,564
1374,567
1375,562
1376,549
1377,519
1378,527
1379,523
1380,522
1381,523
1382,535
1383,559
1384,575
1385,572
1386,567
1387,567
1388,572
1389,561
1390,545
1391,536
1392,527
1393,519
1394,516
1395,508
1396,509
1397,502
1398,496
1399,508
1400,518
1401,529
1402,539
1403,545
1404,545
1405,541
1406,550
1407,545
1408,526
1409,524
1410,527
1411,524
1412,514
1413,501
1414,488
1415,472
1416,479
1417,512
1418,533
1419,571
1420,591
1421,594
1422,593
1423,592
1424,581
1425,557
1426,529
1427,507
1428,510
1429,494
1430,476
1431,475
1432,478
1433,483
1434,486
1435,488
1436,506
1437,515
1438,515
1439,500
1440,470
1441,467
1442,463
1443,455
1444,460
1445,471
1446,480
1447,482
1448,472
1449,460
1450,423
1451,401
1452,403
1453,412
1454,427
1455,440
1456,456
1457,464
1458,464
1459,467
1460,464
1461,472
1462,481
1463,478
1464,480
1465,499
1466,524
1467,536
1468,529
1469,543
1470,534
1471,536
1472,510
1473,466
1474,442
1475,434
1476,439
1477,455
1478,469
1479,485
1480,497
1481,518
1482,533
1483,526
1484,532
1485,541
1486,543
1487,542
1488,550
1489,552
1490,546
1491,550
1492,558
1493,548
1494,535
1495,494
1496,467
1497,457
1498,460
1499,478
1500,495
1501,514
1502,531
1503,528
1504,526
1505,534
1506,546
1507,563
1508,574
1509,588
1510,580
1511,571
1512,559
1513,536
1514,511
1515,489
1516,495
1517,508
1518,507
1519,497
1520,487
1521,494
1522,500
1523,513
1524,515
1525,503
1526,502
1527,510
1528,522
1529,518
1530,503
1531,500
1532,506
1533,528
1534,559
1535,536
1536,523
1537,524
1538,518
1539,499
1540,477
1541,463
1542,463
1543,457
1544,480
1545,475
1546,490
1547,492
1548,483
1549,469
1550,449
1551,458
1552,474
1553,491
1554,509
1555,520
1556,526
1557,540
1558,555
1559,559
1560,551
1561,551
1562,556
1563,555
1564,559
1565,559
1566,557
1567,550
1568,533
1569,528
1570,526
1571,524
1572,528
1573,490
1574,455
1575,434
1576,436
1577,449
1578,464
1579,477
1580,488
1581,514
1582,535
1583,542
1584,541
1585,529
1586,528
1587,521
1588,509
1589,497
1590,479
1591,480
1592,484
1593,484
1594,492
1595,488
1596,487
1597,494
1598,499
1599,505
1600,499
1601,511
1602,538
1603,563
1604,581
1605,580
1606,585
1607,569
1608,564
1609,557
1610,544
1611,525
1612,502
1613,512
1614,523
1615,533
1616,526
1617,510
1618,516
1619,514
1620,509
1621,523
1622,530
1623,531
1624,539
1625,547
1626,555
1627,562
1628,543
1629,539
1630,525
1631,526
1632,536
1633,532
1634,524
1635,519
1636,524
1637,524
1638,517
1639,505
1640,497
1641,506
1642,517
1643,519
1644,526
1645,525
1646,534
1647,545
1648,547
1649,543
1650,521
1651,517
1652,529
1653,547
1654,537
1655,513
1656,505
1657,512
1658,522
1659,534
1660,531
1661,521
1662,515
1663,514
1664,515
1665,512
1666,497
1667,493
1668,521
1669,520
1670,512
1671,490
1672,460
1673,453
1674,447
1675,448
1676,464
1677,481
1678,513
1679,534
1680,531
1681,512
1682,511
1683,518
1684,536
1685,541
1686,547
1687,550
1688,561
1689,562
1690,560
1691,561
1692,557
1693,538
1694,524
1695,506
1696,496
1697,489
1698,476
1699,472
1700,469
1701,483
1702,480
1703,498
1704,492
1705,478
1706,466
1707,457
1708,458
1709,473
1710,492
1711,519
1712,530
1713,530
1714,527
1715,511
1716,494
1717,485
1718,496
1719,526
1720,521
1721,510
1722,510
1723,508
1724,512
1725,499
1726,495
1727,481
1728,475
1729,467
1730,460
1731,475
1732,487
1733,491
1734,509
1735,514
1736,525
1737,537
1738,527
1739,520
1740,519
1741,523
1742,531
1743,535
1744,534
1745,524
1746,540
1747,533
1748,524
1749,534
1750,539
1751,537
1752,536
1753,539
1754,543
1755,535
1756,522
1757,523
1758,524
1759,531
1760,521
1761,514
1762,508
1763,504
1764,510
1765,508
1766,503
1767,488
1768,479
1769,477
1770,473
1771,473
1772,491
1773,519
1774,530
1775,521
1776,508
1777,503
1778,510
1779,502
1780,476
1781,442
1782,425
1783,432
1784,434
1785,430
1786,441
1787,446
1788,430
1789,419
1790,412
1791,430
1792,450
1793,450
1794,453
1795,453
1796,468
1797,480
1798,473
1799,470
1800,464
1801,463
1802,464
1803,463
1804,466
1805,470
1806,475
1807,479
1808,479
1809,495
1810,536
1811,557
1812,575
1813,575
1814,576
1815,576
1816,575
1817,563
1818,549
1819,544
1820,525
1821,503
1822,499
1823,489
1824,480
1825,480
1826,487
1827,493
1828,487
1829,485
1830,488
1831,495
1832,480
1833,456
1834,439
1835,427
1836,435
1837,461
1838,468
1839,472
1840,473
1841,497
1842,527
1843,550
1844,566
1845,564
1846,559
1847,550
1848,541
1849,545
1850,542
1851,529
1852,523
1853,531
1854,544
1855,540
1856,550
1857,559
1858,554
1859,552
1860,542
1861,530
1862,520
1863,526
1864,542
1865,548
1866,560
1867,567
1868,574
1869,559
1870,537
1871,522
1872,519
1873,535
1874,537
1875,532
1876,520
1877,511
1878,503
1879,500
1880,504
1881,511
1882,511
1883,499
1884,493
1885,497
1886,492
1887,486
1888,467
1889,459
1890,449
1891,444
1892,452
1893,461
1894,482
1895,502
1896,531
1897,553
1898,543
1899,523
1900,501
1901,497
1902,503
1903,483
1904,462
1905,445
1906,442
1907,451
1908,451
1909,457
1910,469
1911,487
1912,500
1913,486
1914,475
1915,470
1916,489
1917,508
1918,496
1919,493
1920,490
1921,512
1922,543
1923,562
1924,572
1925,558
1926,564
1927,543
1928,523
1929,496
1930,474
1931,472
1932,475
1933,480
1934,490
1935,491
1936,513
1937,536
1938,549
1939,553
1940,545
1941,536
1942,526
1943,525
1944,530
1945,524
1946,512
1947,514
1948,519
1949,528
1950,525
1951,531
1952,533
1953,530
1954,540
1955,540
1956,541
1957,519
1958,496
1959,493
1960,488
1961,496
1962,505
1963,507
1964,510
1965,502
1966,496
1967,480
1968,473
1969,476
1970,473
1971,459
1972,456
1973,454
1974,466
1975,468
1976,479
1977,484
1978,452
1979,417
1980,398
1981,412
1982,437
1983,431
1984,419
1985,427
1986,441
1987,449
1988,447
1989,453
1990,459
1991,477
1992,499
1993,511
1994,517
1995,504
1996,508
1997,508
1998,505
1999,510
