timestamp,signal
0,503
1,504
2,499
3,483
4,479
5,491
6,505
7,511
8,518
9,526
10,525
11,510
12,487
13,459
14,450
15,441
16,453
17,460
18,460
19,463
20,457
21,451
22,463
23,454
24,462
25,475
26,492
27,489
28,493
29,506
30,509
31,509
32,505
33,502
34,510
35,529
36,531
37,532
38,533
39,548
40,560
41,574
42,579
43,574
44,570
45,547
46,528
47,513
48,501
49,504
50,495
51,494
52,482
53,477
54,480
55,472
56,492
57,495
58,490
59,491
60,504
61,507
62,496
63,489
64,483
65,483
66,485
67,479
68,476
69,487
70,509
71,525
72,540
73,537
74,546
75,552
76,547
77,524
78,505
79,500
80,488
81,495
82,490
83,486
84,484
85,492
86,516
87,547
88,565
89,583
90,587
91,574
92,576
93,572
94,568
95,561
96,559
97,543
98,507
99,485
100,478
101,477
102,470
103,463
104,472
105,481
106,490
107,499
108,481
109,491
110,492
111,485
112,474
113,460
114,454
115,455
116,473
117,487
118,493
119,499
120,502
121,505
122,491
123,472
124,470
125,470
126,469
127,454
128,440
129,419
130,411
131,411
132,433
133,472
134,512
135,531
136,540
137,529
138,499
139,475
140,465
141,466
142,444
143,427
144,435
145,455
146,470
147,470
148,455
149,460
150,462
151,470
152,471
153,466
154,473
155,483
156,492
157,494
158,493
159,504
160,510
161,495
162,486
163,480
164,475
165,475
166,483
167,508
168,528
169,540
170,546
171,536
172,531
173,520
174,507
175,503
176,475
177,443
178,424
179,427
180,431
181,434
182,437
183,440
184,467
185,494
186,513
187,514
188,507
189,515
190,521
191,521
192,500
193,483
194,470
195,491
196,513
197,527
198,526
199,524
200,531
201,549
202,573
203,563
204,564
205,561
206,548
207,531
208,513
209,496
210,496
211,499
212,487
213,471
214,467
215,479
216,484
217,492
218,502
219,519
220,542
221,554
222,537
223,518
224,520
225,519
226,520
227,510
228,491
229,496
230,525
231,526
232,523
233,517
234,520
235,517
236,523
237,523
238,510
239,502
240,509
241,518
242,524
243,531
244,547
245,572
246,590
247,599
248,609
249,611
250,599
251,585
252,561
253,530
254,520
255,517
256,517
257,510
258,505
259,502
260,497
261,491
262,476
263,469
264,460
265,448
266,451
267,449
268,449
269,474
270,498
271,503
272,519
273,535
274,526
275,513
276,509
277,521
278,525
279,532
280,547
281,545
282,528
283,518
284,531
285,524
286,505
287,490
288,472
289,470
290,479
291,475
292,486
293,515
294,541
295,544
296,543
297,544
298,531
299,519
300,509
301,515
302,519
303,516
304,524
305,544
306,561
307,568
308,557
309,547
310,550
311,559
312,553
313,534
314,523
315,515
316,511
317,504
318,496
319,500
320,497
321,495
322,493
323,492
324,498
325,507
326,520
327,514
328,527
329,533
330,525
331,513
332,494
333,475
334,463
335,449
336,450
337,459
338,455
339,463
340,479
341,508
342,513
343,502
344,492
345,494
346,503
347,500
348,507
349,511
350,504
351,497
352,495
353,499
354,512
355,524
356,509
357,495
358,489
359,488
360,473
361,455
362,457
363,467
364,468
365,474
366,483
367,487
368,480
369,476
370,484
371,495
372,489
373,481
374,493
375,513
376,538
377,550
378,550
379,551
380,551
381,566
382,575
383,590
384,603
385,605
386,603
387,617
388,617
389,611
390,599
391,574
392,558
393,551
394,522
395,517
396,508
397,504
398,497
399,498
400,504
401,514
402,509
403,512
404,524
405,535
406,536
407,532
408,519
409,514
410,532
411,527
412,523
413,517
414,523
415,530
416,538
417,562
418,581
419,596
420,592
421,586
422,571
423,554
424,549
425,552
426,549
427,558
428,552
429,537
430,527
431,508
432,495
433,486
434,490
435,491
436,492
437,494
438,497
439,500
440,498
441,482
442,477
443,487
444,499
445,517
446,529
447,539
448,532
449,529
450,529
451,529
452,536
453,529
454,535
455,536
456,536
457,535
458,518
459,508
460,500
461,504
462,499
463,496
464,512
465,518
466,501
467,491
468,485
469,500
470,518
471,519
472,520
473,517
474,528
475,537
476,541
477,531
478,517
479,504
480,488
481,476
482,454
483,448
484,465
485,472
486,473
487,461
488,452
489,464
490,480
491,499
492,499
493,496
494,509
495,523
496,525
497,519
498,510
499,515
500,547
501,538
502,513
503,481
504,469
505,457
506,459
507,466
508,467
509,470
510,473
511,469
512,466
513,469
514,484
515,501
516,510
517,524
518,532
519,537
520,533
521,537
522,555
523,565
524,571
525,564
526,548
527,522
528,498
529,485
530,486
531,489
532,492
533,481
534,488
535,509
536,521
537,515
538,517
539,498
540,484
541,485
542,483
543,476
544,483
545,487
546,488
547,479
548,475
549,493
550,512
551,525
552,531
553,532
554,526
555,523
556,528
557,539
558,537
559,531
560,513
561,496
562,486
563,479
564,487
565,503
566,518
567,525
568,525
569,524
570,521
571,525
572,531
573,535
574,540
575,548
576,549
577,546
578,536
579,533
580,530
581,521
582,505
583,477
584,467
585,471
586,467
587,476
588,495
589,524
590,534
591,545
592,568
593,574
594,576
595,575
596,557
597,537
598,534
599,533
600,555
601,574
602,572
603,558
604,560
605,567
606,563
607,535
608,512
609,507
610,503
611,489
612,472
613,460
614,473
615,493
616,517
617,527
618,520
619,513
620,512
621,529
622,536
623,519
624,504
625,496
626,492
627,486
628,479
629,481
630,491
631,505
632,506
633,494
634,492
635,510
636,518
637,530
638,539
639,535
640,523
641,515
642,507
643,497
644,491
645,497
646,494
647,484
648,468
649,454
650,451
651,465
652,478
653,479
654,493
655,502
656,514
657,510
658,495
659,482
660,479
661,482
662,494
663,511
664,523
665,523
666,518
667,518
668,512
669,507
670,472
671,441
672,426
673,433
674,461
675,488
676,498
677,516
678,528
679,538
680,540
681,541
682,540
683,542
684,536
685,534
686,535
687,518
688,504
689,502
690,500
691,505
692,505
693,505
694,521
695,546
696,577
697,594
698,589
699,583
700,576
701,563
702,538
703,508
704,486
705,466
706,444
707,433
708,432
709,440
710,449
711,478
712,497
713,508
714,510
715,504
716,508
717,501
718,495
719,490
720,478
721,465
722,463
723,460
724,461
725,464
726,467
727,452
728,445
729,446
730,459
731,437
732,449
733,470
734,496
735,512
736,534
737,534
738,524
739,528
740,537
741,536
742,536
743,543
744,555
745,549
746,544
747,536
748,515
749,511
750,504
751,499
752,494
753,480
754,472
755,476
756,483
757,480
758,480
759,490
760,507
761,522
762,516
763,509
764,510
765,505
766,514
767,511
768,476
769,454
770,445
771,431
772,436
773,446
774,460
775,478
776,493
777,500
778,494
779,494
780,489
781,483
782,472
783,445
784,430
785,438
786,434
787,435
788,432
789,438
790,448
791,457
792,458
793,453
794,447
795,447
796,452
797,457
798,451
799,458
800,475
801,483
802,500
803,528
804,560
805,578
806,582
807,588
808,597
809,610
810,618
811,609
812,595
813,574
814,553
815,543
816,540
817,534
818,513
819,506
820,514
821,527
822,533
823,527
824,510
825,499
826,500
827,489
828,472
829,467
830,455
831,426
832,401
833,393
834,411
835,433
836,453
837,477
838,454
839,452
840,466
841,483
842,487
843,473
844,467
845,485
846,484
847,489
848,484
849,497
850,497
851,518
852,527
853,534
854,544
855,536
856,517
857,499
858,468
859,457
860,458
861,456
862,455
863,471
864,498
865,507
866,512
867,515
868,523
869,537
870,540
871,536
872,525
873,514
874,519
875,523
876,529
877,511
878,497
879,489
880,494
881,504
882,495
883,489
884,508
885,525
886,537
887,514
888,487
889,480
890,479
891,487
892,510
893,533
894,549
895,576
896,598
897,610
898,603
899,595
900,593
901,592
902,567
903,531
904,512
905,508
906,504
907,504
908,496
909,501
910,526
911,548
912,556
913,563
914,574
915,584
916,591
917,582
918,556
919,545
920,548
921,527
922,533
923,538
924,547
925,559
926,567
927,576
928,575
929,574
930,566
931,561
932,562
933,560
934,561
935,558
936,545
937,550
938,561
939,572
940,582
941,587
942,582
943,573
944,570
945,556
946,546
947,528
948,504
949,492
950,488
951,489
952,487
953,477
954,483
955,494
956,498
957,492
958,485
959,483
960,492
961,496
962,496
963,499
964,531
965,540
966,549
967,555
968,566
969,564
970,536
971,500
972,490
973,486
974,480
975,479
976,471
977,477
978,465
979,463
980,472
981,492
982,502
983,503
984,507
985,502
986,496
987,494
988,487
989,497
990,511
991,520
992,527
993,534
994,551
995,569
996,566
997,555
998,559
999,554
1000,547
1001,543
1002,537
1003,525
1004,515
1005,508
1006,518
1007,495
1008,489
1009,493
1010,498
1011,502
1012,513
1013,496
1014,498
1015,498
1016,495
1017,496
1018,493
1019,501
1020,512
1021,521
1022,525
1023,524
1024,533
1025,545
1026,554
1027,555
1028,533
1029,516
1030,497
1031,478
1032,452
1033,434
1034,436
1035,446
1036,451
1037,467
1038,471
1039,463
1040,454
1041,457
1042,463
1043,453
1044,443
1045,446
1046,463
1047,469
1048,481
1049,489
1050,497
1051,495
1052,510
1053,513
1054,518
1055,523
1056,523
1057,516
1058,509
1059,519
1060,535
1061,543
1062,524
1063,489
1064,476
1065,474
1066,480
1067,488
1068,487
1069,483
1070,481
1071,482
1072,482
1073,477
1074,479
1075,490
1076,513
1077,526
1078,524
1079,518
1080,519
1081,506
1082,491
1083,475
1084,478
1085,488
1086,491
1087,499
1088,512
1089,529
1090,551
1091,574
1092,587
1093,576
1094,559
1095,542
1096,528
1097,541
1098,556
1099,563
1100,570
1101,559
1102,527
1103,499
1104,492
1105,509
1106,528
1107,534
1108,532
1109,528
1110,515
1111,504
1112,493
1113,478
1114,487
1115,473
1116,462
1117,454
1118,452
1119,438
1120,450
1121,472
1122,487
1123,478
1124,474
1125,482
1126,481
1127,493
1128,508
1129,530
1130,561
1131,581
1132,593
1133,583
1134,562
1135,551
1136,539
1137,547
1138,534
1139,529
1140,528
1141,522
1142,497
1143,481
1144,484
1145,497
1146,513
1147,510
1148,492
1149,478
1150,460
1151,462
1152,457
1153,445
1154,453
1155,475
1156,494
1157,494
1158,474
1159,467
1160,471
1161,484
1162,491
1163,488
1164,493
1165,499
1166,509
1167,508
1168,520
1169,530
1170,545
1171,563
1172,572
1173,560
1174,557
1175,552
1176,541
1177,524
1178,496
1179,485
1180,483
1181,491
1182,497
1183,499
1184,505
1185,501
1186,495
1187,488
1188,480
1189,480
1190,494
1191,507
1192,525
1193,534
1194,548
1195,546
1196,543
1197,537
1198,529
1199,523
1200,523
1201,512
1202,491
1203,462
1204,461
1205,472
1206,477
1207,482
1208,482
1209,486
1210,489
1211,485
1212,480
1213,475
1214,498
1215,528
1216,538
1217,529
1218,500
1219,489
1220,485
1221,486
1222,491
1223,496
1224,501
1225,515
1226,536
1227,550
1228,545
1229,530
1230,532
1231,541
1232,560
1233,575
1234,575
1235,557
1236,530
1237,509
1238,496
1239,483
1240,467
1241,467
1242,472
1243,465
1244,464
1245,478
1246,483
1247,482
1248,475
1249,477
1250,474
1251,472
1252,459
1253,451
1254,451
1255,455
1256,464
1257,472
1258,466
1259,457
1260,450
1261,454
1262,469
1263,480
1264,500
1265,507
1266,516
1267,529
1268,526
1269,527
1270,542
1271,544
1272,549
1273,553
1274,554
1275,567
1276,550
1277,543
1278,540
1279,548
1280,547
1281,546
1282,554
1283,571
1284,577
1285,572
1286,556
1287,555
1288,563
1289,556
1290,542
1291,528
1292,519
1293,496
1294,502
1295,506
1296,516
1297,515
1298,514
1299,527
1300,533
1301,513
1302,499
1303,491
1304,499
1305,505
1306,502
1307,481
1308,454
1309,440
1310,442
1311,457
1312,468
1313,479
1314,499
1315,521
1316,539
1317,556
1318,559
1319,556
1320,538
1321,532
1322,524
1323,511
1324,507
1325,520
1326,531
1327,534
1328,524
1329,517
1330,509
1331,497
1332,512
1333,515
1334,502
1335,487
1336,473
1337,461
1338,456
1339,477
1340,500
1341,518
1342,519
1343,499
1344,497
1345,509
1346,517
1347,514
1348,516
1349,536
1350,544
1351,531
1352,508
1353,490
1354,493
1355,504
1356,514
1357,513
1358,516
1359,520
1360,524
1361,523
1362,529
1363,533
1364,529
1365,527
1366,527
1367,532
1368,527
1369,512
1370,513
1371,519
1372,530
1373,526
1374,520
1375,527
1376,536
1377,553
1378,554
1379,551
1380,543
1381,539
1382,540
1383,536
1384,532
1385,526
1386,523
1387,507
1388,490
1389,495
1390,503
1391,505
1392,507
1393,498
1394,496
1395,496
1396,491
1397,480
1398,475
1399,480
1400,480
1401,476
1402,481
1403,487
1404,496
1405,485
1406,480
1407,471
1408,466
1409,471
1410,478
1411,491
1412,492
1413,491
1414,496
1415,495
1416,499
1417,521
1418,533
1419,548
1420,562
1421,570
1422,563
1423,535
1424,520
1425,514
1426,520
1427,534
1428,541
1429,551
1430,554
1431,541
1432,512
1433,472
1434,449
1435,444
1436,442
1437,448
1438,447
1439,459
1440,467
1441,482
1442,487
1443,482
1444,475
1445,471
1446,472
1447,475
1448,476
1449,481
1450,478
1451,474
1452,468
1453,461
1454,465
1455,474
1456,482
1457,483
1458,470
1459,460
1460,475
1461,497
1462,494
1463,475
1464,475
1465,485
1466,499
1467,508
1468,507
1469,510
1470,520
1471,529
1472,531
1473,518
1474,514
1475,519
1476,541
1477,535
1478,515
1479,492
1480,487
1481,495
1482,490
1483,487
1484,476
1485,481
1486,486
1487,504
1488,521
1489,539
1490,553
1491,565
1492,582
1493,587
1494,591
1495,581
1496,580
1497,557
1498,531
1499,525
1500,523
1501,520
1502,514
1503,510
1504,525
1505,523
1506,513
1507,509
1508,492
1509,498
1510,498
1511,492
1512,478
1513,460
1514,456
1515,464
1516,472
1517,476
1518,465
1519,465
1520,481
1521,494
1522,496
1523,496
1524,492
1525,496
1526,495
1527,503
1528,509
1529,531
1530,555
1531,576
1532,589
1533,591
1534,557
1535,535
1536,521
1537,509
1538,499
1539,499
1540,501
1541,501
1542,500
1543,508
1544,524
1545,540
1546,555
1547,548
1548,539
1549,531
1550,519
1551,522
1552,515
1553,506
1554,502
1555,499
1556,518
1557,521
1558,510
1559,511
1560,515
1561,527
1562,517
1563,504
1564,501
1565,510
1566,521
1567,514
1568,504
1569,509
1570,514
1571,514
1572,511
1573,502
1574,505
1575,497
1576,489
1577,497
1578,508
1579,518
1580,533
1581,551
1582,563
1583,567
1584,567
1585,553
1586,552
1587,566
1588,583
1589,598
1590,600
1591,593
1592,583
1593,558
1594,545
1595,553
1596,568
1597,561
1598,543
1599,529
1600,514
1601,501
1602,481
1603,470
1604,472
1605,489
1606,499
1607,500
1608,499
1609,496
1610,496
1611,499
1612,496
1613,479
1614,465
1615,443
1616,438
1617,431
1618,422
1619,424
1620,419
1621,418
1622,425
1623,432
1624,443
1625,464
1626,488
1627,492
1628,493
1629,503
1630,521
1631,523
1632,533
1633,528
1634,516
1635,505
1636,497
1637,508
1638,503
1639,506
1640,516
1641,529
1642,541
1643,526
1644,517
1645,518
1646,502
1647,478
1648,468
1649,478
1650,484
1651,480
1652,475
1653,461
1654,470
1655,491
1656,512
1657,508
1658,489
1659,485
1660,488
1661,494
1662,500
1663,510
1664,520
1665,536
1666,550
1667,541
1668,517
1669,503
1670,492
1671,496
1672,489
1673,474
1674,472
1675,499
1676,510
1677,514
1678,507
1679,502
1680,494
1681,497
1682,494
1683,486
1684,493
1685,505
1686,521
1687,520
1688,527
1689,520
1690,522
1691,504
1692,490
1693,489
1694,502
1695,512
1696,511
1697,519
1698,508
1699,506
1700,504
1701,502
1702,501
1703,497
1704,507
1705,523
1706,536
1707,538
1708,531
1709,537
1710,547
1711,553
1712,540
1713,511
1714,500
1715,494
1716,498
1717,506
1718,509
1719,524
1720,542
1721,554
1722,550
1723,535
1724,516
1725,499
1726,491
1727,478
1728,466
1729,472
1730,481
1731,491
1732,474
1733,464
1734,466
1735,476
1736,475
1737,480
1738,483
1739,487
1740,490
1741,495
1742,496
1743,488
1744,497
1745,518
1746,528
1747,526
1748,533
1749,550
1750,574
1751,585
1752,575
1753,553
1754,536
1755,534
1756,532
1757,527
1758,519
1759,513
1760,509
1761,518
1762,524
1763,521
1764,518
1765,521
1766,519
1767,518
1768,516
1769,510
1770,511
1771,506
1772,496
1773,483
1774,479
1775,481
1776,483
1777,484
1778,485
1779,498
1780,511
1781,530
1782,529
1783,518
1784,507
1785,502
1786,503
1787,492
1788,480
1789,485
1790,504
1791,526
1792,541
1793,547
1794,551
1795,550
1796,535
1797,517
1798,491
1799,481
1800,492
1801,515
1802,530
1803,545
1804,554
1805,552
1806,541
1807,533
1808,514
1809,503
1810,504
1811,519
1812,526
1813,513
1814,514
1815,520
1816,512
1817,496
1818,476
1819,482
1820,506
1821,505
1822,497
1823,483
1824,491
1825,499
1826,511
1827,511
1828,486
1829,472
1830,474
1831,487
1832,499
1833,487
1834,476
1835,476
1836,485
1837,485
1838,484
1839,493
1840,505
1841,517
1842,520
1843,522
1844,519
1845,507
1846,504
1847,479
1848,446
1849,432
1850,428
1851,445
1852,455
1853,463
1854,487
1855,510
1856,513
1857,509
1858,499
1859,492
1860,494
1861,498
1862,488
1863,467
1864,454
1865,456
1866,451
1867,441
1868,436
1869,438
1870,439
1871,452
1872,463
1873,475
1874,498
1875,516
1876,536
1877,541
1878,535
1879,526
1880,519
1881,524
1882,521
1883,532
1884,552
1885,561
1886,556
1887,555
1888,550
1889,544
1890,548
1891,549
1892,548
1893,544
1894,548
1895,555
1896,565
1897,583
1898,586
1899,590
1900,588
1901,593
1902,601
1903,598
1904,597
1905,592
1906,574
1907,565
1908,555
1909,558
1910,568
1911,568
1912,563
1913,552
1914,554
1915,554
1916,553
1917,559
1918,556
1919,560
1920,563
1921,561
1922,559
1923,529
1924,512
1925,509
1926,510
1927,494
1928,472
1929,467
1930,471
1931,479
1932,487
1933,476
1934,473
1935,478
1936,483
1937,486
1938,492
1939,504
1940,511
1941,516
1942,506
1943,480
1944,473
1945,469
1946,484
1947,499
1948,502
1949,512
1950,522
1951,536
1952,544
1953,545
1954,545
1955,547
1956,558
1957,549
1958,531
1959,521
1960,513
1961,520
1962,514
1963,507
1964,509
1965,519
1966,524
1967,513
1968,502
1969,492
1970,492
1971,487
1972,500
1973,509
1974,518
1975,540
1976,560
1977,561
1978,547
1979,543
1980,546
1981,540
1982,519
1983,506
1984,515
1985,524
1986,522
1987,517
1988,503
1989,506
1990,514
1991,518
1992,522
1993,518
1994,521
1995,516
1996,510
1997,513
1998,520
1999,531
