timestamp,signal
0,503
1,500
2,493
3,499
4,492
5,469
6,466
7,487
8,507
9,509
10,504
11,505
12,507
13,521
14,508
15,480
16,488
17,482
18,492
19,514
20,520
21,521
22,514
23,503
24,491
25,472
26,477
27,490
28,499
29,506
30,483
31,481
32,492
33,481
34,482
35,463
36,451
37,451
38,453
39,458
40,463
41,485
42,497
43,503
44,506
45,494
46,501
47,507
48,516
49,521
50,518
51,510
52,513
53,523
54,524
55,516
56,511
57,495
58,511
59,530
60,523
61,515
62,515
63,531
64,527
65,512
66,515
67,515
68,512
69,504
70,478
71,468
72,465
73,476
74,492
75,483
76,494
77,515
78,530
79,540
80,542
81,536
82,529
83,521
84,519
85,508
86,508
87,499
88,498
89,494
90,478
91,484
92,491
93,495
94,496
95,496
96,500
97,497
98,491
99,470
100,454
101,440
102,450
103,481
104,496
105,492
106,466
107,429
108,406
109,406
110,419
111,456
112,486
113,496
114,506
115,496
116,497
117,497
118,499
119,509
120,499
121,505
122,518
123,527
124,530
125,527
126,532
127,540
128,557
129,566
130,545
131,538
132,539
133,531
134,516
135,498
136,504
137,519
138,531
139,534
140,524
141,532
142,552
143,574
144,577
145,551
146,532
147,525
148,545
149,554
150,539
151,518
152,515
153,527
154,527
155,516
156,517
157,521
158,540
159,564
160,569
161,581
162,600
163,619
164,617
165,579
166,542
167,520
168,502
169,475
170,429
171,412
172,420
173,421
174,430
175,427
176,444
177,470
178,478
179,487
180,482
181,489
182,501
183,513
184,512
185,500
186,501
187,507
188,517
189,516
190,491
191,489
192,489
193,492
194,502
195,495
196,496
197,514
198,521
199,514
200,491
201,493
202,509
203,517
204,515
205,511
206,531
207,548
208,562
209,572
210,575
211,585
212,598
213,597
214,580
215,549
216,545
217,542
218,531
219,520
220,500
221,507
222,508
223,508
224,508
225,490
226,496
227,513
228,528
229,524
230,511
231,511
232,506
233,495
234,488
235,480
236,477
237,480
238,500
239,528
240,532
241,536
242,523
243,523
244,515
245,495
246,502
247,502
248,492
249,483
250,463
251,468
252,478
253,488
254,514
255,536
256,552
257,559
258,547
259,530
260,527
261,508
262,499
263,498
264,508
265,510
266,525
267,536
268,530
269,519
270,508
271,521
272,528
273,530
274,531
275,531
276,547
277,554
278,560
279,547
280,519
281,498
282,492
283,489
284,491
285,481
286,477
287,482
288,498
289,509
290,503
291,511
292,519
293,521
294,517
295,507
296,519
297,539
298,543
299,532
300,520
301,519
302,529
303,541
304,547
305,543
306,555
307,569
308,575
309,569
310,549
311,544
312,543
313,534
314,528
315,517
316,517
317,522
318,529
319,539
320,529
321,525
322,519
323,521
324,507
325,490
326,476
327,475
328,484
329,483
330,476
331,472
332,474
333,480
334,486
335,479
336,467
337,455
338,447
339,429
340,422
341,444
342,473
343,492
344,505
345,523
346,551
347,552
348,536
349,514
350,494
351,509
352,519
353,527
354,519
355,504
356,493
357,481
358,466
359,466
360,451
361,479
362,503
363,532
364,549
365,546
366,551
367,556
368,563
369,557
370,531
371,519
372,510
373,497
374,492
375,480
376,496
377,516
378,516
379,522
380,527
381,541
382,544
383,532
384,527
385,545
386,574
387,590
388,597
389,606
390,608
391,619
392,624
393,621
394,611
395,590
396,573
397,559
398,548
399,543
400,527
401,526
402,537
403,541
404,551
405,552
406,566
407,579
408,586
409,582
410,555
411,540
412,540
413,532
414,529
415,515
416,516
417,512
418,517
419,520
420,521
421,531
422,531
423,540
424,542
425,529
426,519
427,520
428,540
429,542
430,517
431,501
432,493
433,499
434,488
435,466
436,452
437,449
438,456
439,446
440,420
441,414
442,425
443,445
444,461
445,451
446,463
447,479
448,495
449,505
450,498
451,506
452,514
453,518
454,531
455,536
456,539
457,536
458,531
459,521
460,497
461,497
462,497
463,499
464,499
465,482
466,498
467,499
468,502
469,516
470,513
471,519
472,523
473,523
474,520
475,513
476,501
477,497
478,489
479,487
480,497
481,511
482,543
483,574
484,581
485,560
486,534
487,509
488,490
489,486
490,481
491,486
492,489
493,489
494,487
495,478
496,492
497,512
498,532
499,545
500,534
501,532
502,527
503,517
504,514
505,497
506,494
507,501
508,506
509,514
510,512
511,522
512,528
513,526
514,524
515,523
516,530
517,530
518,526
519,526
520,512
521,503
522,505
523,522
524,538
525,531
526,535
527,530
528,515
529,493
530,472
531,470
532,476
533,484
534,494
535,493
536,513
537,542
538,563
539,575
540,574
541,562
542,551
543,558
544,550
545,528
546,509
547,499
548,497
549,474
550,455
551,433
552,428
553,449
554,458
555,451
556,444
557,435
558,416
559,406
560,401
561,417
562,447
563,470
564,487
565,490
566,505
567,516
568,519
569,517
570,498
571,491
572,481
573,478
574,489
575,489
576,496
577,506
578,509
579,511
580,487
581,481
582,499
583,521
584,526
585,509
586,510
587,515
588,519
589,531
590,527
591,532
592,537
593,548
594,563
595,562
596,563
597,557
598,541
599,523
600,506
601,511
602,519
603,526
604,526
605,518
606,524
607,524
608,536
609,540
610,528
611,521
612,511
613,524
614,530
615,514
616,523
617,534
618,537
619,541
620,531
621,524
622,522
623,518
624,517
625,520
626,527
627,540
628,551
629,552
630,553
631,568
632,574
633,567
634,545
635,516
636,507
637,509
638,508
639,503
640,482
641,476
642,492
643,510
644,514
645,501
646,512
647,517
648,516
649,514
650,508
651,514
652,528
653,536
654,533
655,520
656,525
657,542
658,538
659,531
660,521
661,536
662,513
663,491
664,482
665,466
666,469
667,487
668,492
669,501
670,516
671,534
672,529
673,511
674,505
675,490
676,486
677,483
678,472
679,464
680,441
681,435
682,439
683,454
684,473
685,483
686,506
687,523
688,524
689,512
690,495
691,487
692,494
693,494
694,493
695,482
696,492
697,515
698,533
699,540
700,528
701,516
702,507
703,503
704,486
705,458
706,445
707,439
708,441
709,441
710,429
711,419
712,433
713,427
714,422
715,420
716,423
717,446
718,463
719,476
720,478
721,490
722,504
723,505
724,514
725,483
726,484
727,490
728,496
729,502
730,496
731,499
732,514
733,533
734,530
735,496
736,486
737,488
738,490
739,487
740,472
741,473
742,486
743,490
744,500
745,513
746,540
747,547
748,536
749,533
750,529
751,535
752,554
753,566
754,570
755,559
756,559
757,553
758,544
759,533
760,523
761,527
762,542
763,557
764,559
765,548
766,558
767,575
768,595
769,582
770,532
771,510
772,510
773,519
774,533
775,539
776,565
777,588
778,588
779,576
780,562
781,554
782,543
783,536
784,531
785,518
786,508
787,508
788,506
789,487
790,461
791,452
792,444
793,462
794,475
795,478
796,491
797,515
798,540
799,547
800,513
801,490
802,489
803,494
804,499
805,503
806,527
807,553
808,557
809,531
810,500
811,495
812,494
813,499
814,508
815,502
816,515
817,533
818,544
819,554
820,547
821,547
822,546
823,540
824,539
825,541
826,550
827,554
828,548
829,547
830,545
831,563
832,560
833,536
834,510
835,469
836,433
837,414
838,419
839,432
840,441
841,463
842,498
843,513
844,512
845,495
846,504
847,504
848,504
849,526
850,517
851,527
852,535
853,537
854,543
855,536
856,542
857,550
858,551
859,547
860,525
861,518
862,517
863,519
864,519
865,513
866,528
867,533
868,543
869,553
870,532
871,516
872,524
873,528
874,534
875,530
876,533
877,541
878,539
879,520
880,510
881,510
882,512
883,521
884,529
885,527
886,526
887,515
888,504
889,488
890,465
891,465
892,482
893,496
894,495
895,468
896,472
897,454
898,454
899,471
900,496
901,530
902,546
903,530
904,512
905,513
906,525
907,533
908,524
909,517
910,514
911,515
912,518
913,530
914,545
915,557
916,574
917,591
918,607
919,605
920,585
921,579
922,579
923,568
924,564
925,559
926,569
927,566
928,550
929,537
930,506
931,488
932,489
933,496
934,492
935,485
936,488
937,495
938,512
939,526
940,513
941,488
942,471
943,457
944,451
945,443
946,456
947,462
948,460
949,466
950,457
951,460
952,460
953,462
954,467
955,464
956,472
957,475
958,463
959,445
960,431
961,440
962,446
963,445
964,443
965,430
966,431
967,430
968,424
969,416
970,418
971,443
972,465
973,476
974,491
975,507
976,524
977,516
978,484
979,464
980,444
981,444
982,460
983,486
984,522
985,525
986,527
987,530
988,542
989,549
990,533
991,535
992,529
993,521
994,524
995,522
996,534
997,525
998,512
999,497
1000,487
1001,486
1002,489
1003,492
1004,504
1005,500
1006,522
1007,548
1008,559
1009,565
1010,559
1011,553
1012,539
1013,519
1014,497
1015,477
1016,491
1017,505
1018,511
1019,527
1020,543
1021,569
1022,599
1023,609
1024,616
1025,589
1026,568
1027,555
1028,536
1029,522
1030,503
1031,506
1032,514
1033,524
1034,524
1035,500
1036,497
1037,515
1038,525
1039,524
1040,512
1041,508
1042,513
1043,524
1044,508
1045,487
1046,496
1047,499
1048,499
1049,496
1050,468
1051,457
1052,450
1053,455
1054,453
1055,445
1056,446
1057,465
1058,487
1059,496
1060,487
1061,475
1062,454
1063,451
1064,454
1065,451
1066,464
1067,500
1068,499
1069,502
1070,510
1071,505
1072,517
1073,532
1074,531
1075,513
1076,514
1077,524
1078,517
1079,509
1080,499
1081,517
1082,540
1083,546
1084,538
1085,518
1086,532
1087,559
1088,570
1089,569
1090,555
1091,559
1092,574
1093,582
1094,569
1095,542
1096,535
1097,539
1098,537
1099,517
1100,509
1101,516
1102,507
1103,497
1104,491
1105,484
1106,490
1107,471
1108,430
1109,415
1110,402
1111,417
1112,437
1113,457
1114,461
1115,451
1116,460
1117,477
1118,489
1119,486
1120,472
1121,469
1122,481
1123,511
1124,494
1125,479
1126,485
1127,494
1128,489
1129,483
1130,470
1131,465
1132,474
1133,494
1134,483
1135,472
1136,483
1137,496
1138,496
1139,499
1140,472
1141,479
1142,484
1143,489
1144,489
1145,468
1146,475
1147,495
1148,519
1149,540
1150,529
1151,512
1152,512
1153,529
1154,531
1155,519
1156,512
1157,505
1158,509
1159,506
1160,495
1161,485
1162,480
1163,488
1164,491
1165,471
1166,467
1167,464
1168,460
1169,462
1170,453
1171,468
1172,486
1173,482
1174,483
1175,482
1176,496
1177,513
1178,512
1179,511
1180,503
1181,502
1182,504
1183,491
1184,472
1185,435
1186,423
1187,426
1188,432
1189,451
1190,448
1191,466
1192,485
1193,500
1194,507
1195,505
1196,517
1197,534
1198,539
1199,544
1200,529
1201,522
1202,514
1203,496
1204,478
1205,450
1206,455
1207,480
1208,500
1209,517
1210,536
1211,551
1212,554
1213,552
1214,543
1215,537
1216,526
1217,525
1218,516
1219,510
1220,506
1221,497
1222,485
1223,491
1224,499
1225,496
1226,513
1227,530
1228,535
1229,528
1230,510
1231,511
1232,506
1233,498
1234,502
1235,493
1236,508
1237,534
1238,537
1239,540
1240,535
1241,546
1242,547
1243,544
1244,535
1245,517
1246,526
1247,533
1248,533
1249,541
1250,545
1251,559
1252,568
1253,569
1254,573
1255,569
1256,577
1257,584
1258,574
1259,562
1260,551
1261,559
1262,569
1263,568
1264,560
1265,536
1266,531
1267,531
1268,526
1269,516
1270,483
1271,473
1272,483
1273,487
1274,490
1275,477
1276,477
1277,494
1278,515
1279,529
1280,521
1281,519
1282,527
1283,531
1284,540
1285,535
1286,533
1287,530
1288,534
1289,540
1290,528
1291,526
1292,537
1293,546
1294,552
1295,527
1296,505
1297,510
1298,518
1299,524
1300,537
1301,555
1302,569
1303,561
1304,543
1305,542
1306,551
1307,528
1308,495
1309,481
1310,472
1311,481
1312,486
1313,480
1314,478
1315,463
1316,459
1317,452
1318,449
1319,434
1320,416
1321,429
1322,455
1323,470
1324,484
1325,480
1326,483
1327,493
1328,503
1329,515
1330,510
1331,512
1332,517
1333,508
1334,503
1335,485
1336,496
1337,521
1338,533
1339,531
1340,519
1341,516
1342,504
1343,497
1344,499
1345,487
1346,493
1347,508
1348,529
1349,540
1350,547
1351,548
1352,545
1353,543
1354,544
1355,545
1356,558
1357,564
1358,554
1359,549
1360,544
1361,553
1362,553
1363,536
1364,519
1365,496
1366,507
1367,516
1368,516
1369,523
1370,526
1371,533
1372,529
1373,512
1374,486
1375,459
1376,467
1377,473
1378,476
1379,482
1380,480
1381,495
1382,504
1383,509
1384,512
1385,498
1386,504
1387,514
1388,512
1389,501
1390,480
1391,468
1392,466
1393,476
1394,473
1395,447
1396,436
1397,432
1398,438
1399,444
1400,462
1401,488
1402,498
1403,492
1404,486
1405,487
1406,495
1407,491
1408,486
1409,480
1410,466
1411,486
1412,509
1413,529
1414,544
1415,547
1416,558
1417,555
1418,531
1419,515
1420,495
1421,504
1422,508
1423,502
1424,504
1425,494
1426,506
1427,533
1428,548
1429,541
1430,519
1431,499
1432,510
1433,545
1434,555
1435,551
1436,551
1437,546
1438,542
1439,536
1440,524
1441,528
1442,535
1443,543
1444,557
1445,552
1446,557
1447,554
1448,546
1449,532
1450,507
1451,510
1452,510
1453,515
1454,511
1455,493
1456,484
1457,475
1458,487
1459,504
1460,511
1461,521
1462,511
1463,509
1464,505
1465,487
1466,483
1467,487
1468,500
1469,497
1470,478
1471,481
1472,487
1473,497
1474,509
1475,498
1476,508
1477,521
1478,528
1479,533
1480,523
1481,531
1482,545
1483,546
1484,535
1485,507
1486,508
1487,508
1488,511
1489,517
1490,499
1491,494
1492,494
1493,494
1494,504
1495,508
1496,528
1497,547
1498,561
1499,578
1500,556
1501,533
1502,516
1503,505
1504,503
1505,482
1506,489
1507,481
1508,475
1509,485
1510,483
1511,497
1512,508
1513,510
1514,517
1515,527
1516,546
1517,563
1518,558
1519,558
1520,565
1521,584
1522,602
1523,606
1524,607
1525,588
1526,572
1527,557
1528,556
1529,555
1530,537
1531,527
1532,505
1533,489
1534,485
1535,471
1536,479
1537,490
1538,494
1539,496
1540,492
1541,505
1542,528
1543,540
1544,544
1545,531
1546,533
1547,543
1548,552
1549,546
1550,525
1551,531
1552,523
1553,504
1554,491
1555,476
1556,489
1557,497
1558,494
1559,489
1560,486
1561,497
1562,504
1563,483
1564,471
1565,462
1566,458
1567,443
1568,440
1569,419
1570,393
1571,398
1572,419
1573,438
1574,446
1575,428
1576,424
1577,432
1578,419
1579,417
1580,404
1581,419
1582,446
1583,471
1584,499
1585,507
1586,514
1587,534
1588,553
1589,559
1590,551
1591,561
1592,574
1593,564
1594,547
1595,526
1596,527
1597,537
1598,546
1599,553
1600,559
1601,564
1602,582
1603,572
1604,577
1605,579
1606,579
1607,577
1608,560
1609,542
1610,533
1611,542
1612,539
1613,532
1614,531
1615,525
1616,527
1617,535
1618,528
1619,532
1620,525
1621,529
1622,540
1623,543
1624,547
1625,538
1626,534
1627,510
1628,475
1629,454
1630,430
1631,437
1632,446
1633,455
1634,487
1635,473
1636,487
1637,506
1638,511
1639,495
1640,458
1641,454
1642,451
1643,458
1644,467
1645,468
1646,479
1647,494
1648,505
1649,515
1650,516
1651,529
1652,534
1653,513
1654,505
1655,498
1656,504
1657,504
1658,488
1659,481
1660,476
1661,479
1662,478
1663,472
1664,475
1665,471
1666,478
1667,475
1668,468
1669,482
1670,492
1671,521
1672,531
1673,528
1674,524
1675,510
1676,508
1677,515
1678,524
1679,521
1680,506
1681,509
1682,528
1683,548
1684,560
1685,547
1686,531
1687,515
1688,506
1689,501
1690,491
1691,490
1692,493
1693,517
1694,534
1695,538
1696,532
1697,522
1698,521
1699,521
1700,505
1701,507
1702,499
1703,496
1704,470
1705,435
1706,430
1707,444
1708,454
1709,476
1710,489
1711,507
1712,519
1713,513
1714,515
1715,503
1716,503
1717,512
1718,517
1719,521
1720,515
1721,519
1722,524
1723,526
1724,515
1725,493
1726,499
1727,508
1728,503
1729,501
1730,472
1731,462
1732,472
1733,485
1734,492
1735,485
1736,507
1737,517
1738,531
1739,544
1740,535
1741,537
1742,551
1743,555
1744,534
1745,510
1746,507
1747,513
1748,526
1749,535
1750,511
1751,507
1752,502
1753,488
1754,483
1755,471
1756,484
1757,484
1758,481
1759,473
1760,439
1761,425
1762,432
1763,451
1764,480
1765,485
1766,513
1767,506
1768,507
1769,508
1770,487
1771,478
1772,486
1773,487
1774,486
1775,468
1776,476
1777,495
1778,504
1779,510
1780,503
1781,499
1782,496
1783,492
1784,494
1785,480
1786,483
1787,503
1788,517
1789,518
1790,504
1791,511
1792,526
1793,536
1794,545
1795,550
1796,564
1797,566
1798,532
1799,504
1800,492
1801,501
1802,514
1803,519
1804,525
1805,527
1806,549
1807,554
1808,547
1809,537
1810,532
1811,538
1812,536
1813,550
1814,539
1815,516
1816,503
1817,499
1818,506
1819,502
1820,484
1821,469
1822,452
1823,449
1824,437
1825,430
1826,444
1827,467
1828,499
1829,524
1830,519
1831,521
1832,519
1833,523
1834,540
1835,534
1836,521
1837,521
1838,534
1839,547
1840,553
1841,569
1842,588
1843,593
1844,589
1845,563
1846,541
1847,541
1848,548
1849,549
1850,530
1851,522
1852,527
1853,526
1854,526
1855,504
1856,487
1857,468
1858,444
1859,420
1860,401
1861,406
1862,425
1863,448
1864,470
1865,484
1866,511
1867,536
1868,556
1869,543
1870,521
1871,519
1872,529
1873,548
1874,552
1875,540
1876,525
1877,517
1878,528
1879,523
1880,514
1881,503
1882,499
1883,512
1884,518
1885,508
1886,513
1887,526
1888,543
1889,561
1890,577
1891,592
1892,591
1893,589
1894,572
1895,533
1896,500
1897,481
1898,481
1899,481
1900,473
1901,482
1902,499
1903,517
1904,539
1905,538
1906,544
1907,553
1908,563
1909,561
1910,536
1911,535
1912,532
1913,531
1914,534
1915,521
1916,533
1917,559
1918,566
1919,553
1920,521
1921,511
1922,524
1923,535
1924,535
1925,519
1926,529
1927,537
1928,536
1929,522
1930,494
1931,488
1932,480
1933,486
1934,483
1935,470
1936,462
1937,469
1938,483
1939,470
1940,451
1941,460
1942,453
1943,467
1944,457
1945,435
1946,420
1947,417
1948,435
1949,455
1950,468
1951,487
1952,496
1953,497
1954,508
1955,485
1956,492
1957,499
1958,500
1959,505
1960,500
1961,507
1962,530
1963,547
1964,560
1965,538
1966,529
1967,515
1968,506
1969,509
1970,505
1971,498
1972,498
1973,499
1974,505
1975,504
1976,518
1977,525
1978,504
1979,491
1980,480
1981,475
1982,462
1983,458
1984,469
1985,465
1986,467
1987,471
1988,487
1989,487
1990,485
1991,482
1992,488
1993,504
1994,521
1995,533
1996,559
1997,579
1998,590
1999,587
