timestamp,signal
0,494
1,496
2,508
3,522
4,521
5,508
6,492
7,501
8,502
9,504
10,519
11,507
12,510
13,522
14,528
15,538
16,531
17,536
18,551
19,567
20,559
21,535
22,527
23,534
24,532
25,518
26,508
27,514
28,513
29,504
30,505
31,503
32,507
33,523
34,528
35,537
36,531
37,519
38,490
39,476
40,467
41,459
42,476
43,497
44,501
45,503
46,485
47,507
48,505
49,510
50,520
51,517
52,525
53,536
54,533
55,529
56,518
57,520
58,525
59,518
60,515
61,505
62,515
63,532
64,549
65,558
66,552
67,560
68,566
69,567
70,580
71,562
72,569
73,571
74,558
75,551
76,536
77,518
78,515
79,532
80,557
81,567
82,574
83,588
84,604
85,611
86,602
87,597
88,600
89,588
90,568
91,536
92,528
93,539
94,541
95,534
96,519
97,531
98,553
99,570
100,577
101,564
102,574
103,580
104,587
105,598
106,589
107,582
108,579
109,559
110,548
111,528
112,539
113,550
114,542
115,524
116,516
117,516
118,513
119,515
120,519
121,519
122,532
123,542
124,522
125,507
126,477
127,464
128,457
129,443
130,430
131,403
132,396
133,410
134,439
135,441
136,426
137,441
138,471
139,484
140,479
141,454
142,461
143,482
144,525
145,533
146,518
147,513
148,521
149,508
150,486
151,461
152,455
153,455
154,457
155,463
156,446
157,441
158,448
159,446
160,441
161,428
162,423
163,430
164,445
165,471
166,491
167,519
168,535
169,529
170,513
171,487
172,474
173,478
174,481
175,495
176,494
177,510
178,520
179,515
180,509
181,493
182,495
183,497
184,494
185,487
186,472
187,476
188,502
189,506
190,495
191,483
192,472
193,482
194,485
195,491
196,485
197,483
198,464
199,455
200,466
201,480
202,514
203,537
204,549
205,558
206,542
207,531
208,528
209,524
210,504
211,479
212,463
213,455
214,465
215,475
216,469
217,478
218,490
219,504
220,504
221,497
222,501
223,513
224,526
225,528
226,506
227,488
228,480
229,477
230,479
231,485
232,514
233,528
234,528
235,530
236,511
237,500
238,496
239,495
240,497
241,495
242,506
243,524
244,540
245,555
246,556
247,552
248,550
249,545
250,548
251,557
252,573
253,581
254,570
255,551
256,536
257,544
258,557
259,564
260,558
261,540
262,537
263,528
264,512
265,497
266,467
267,467
268,478
269,480
270,495
271,504
272,531
273,549
274,558
275,556
276,531
277,519
278,512
279,507
280,508
281,498
282,496
283,497
284,505
285,521
286,513
287,526
288,537
289,530
290,529
291,491
292,455
293,455
294,475
295,507
296,515
297,523
298,542
299,574
300,566
301,544
302,544
303,556
304,550
305,537
306,515
307,507
308,506
309,494
310,493
311,486
312,502
313,524
314,527
315,536
316,527
317,517
318,508
319,500
320,503
321,513
322,515
323,521
324,521
325,517
326,496
327,499
328,519
329,539
330,544
331,524
332,505
333,487
334,468
335,466
336,466
337,484
338,503
339,519
340,539
341,546
342,562
343,580
344,578
345,570
346,544
347,531
348,530
349,534
350,536
351,521
352,537
353,527
354,524
355,527
356,515
357,503
358,493
359,500
360,510
361,509
362,520
363,535
364,542
365,535
366,511
367,510
368,503
369,486
370,475
371,469
372,477
373,480
374,472
375,471
376,472
377,483
378,489
379,500
380,506
381,509
382,532
383,548
384,544
385,538
386,530
387,529
388,531
389,521
390,516
391,518
392,529
393,521
394,487
395,468
396,458
397,469
398,488
399,507
400,518
401,521
402,536
403,548
404,558
405,566
406,543
407,529
408,525
409,531
410,542
411,537
412,530
413,526
414,514
415,499
416,479
417,479
418,488
419,495
420,504
421,500
422,511
423,511
424,505
425,482
426,453
427,441
428,440
429,450
430,455
431,462
432,468
433,484
434,505
435,494
436,472
437,465
438,462
439,475
440,482
441,478
442,484
443,503
444,507
445,508
446,501
447,517
448,519
449,504
450,493
451,477
452,483
453,499
454,508
455,511
456,499
457,492
458,488
459,488
460,491
461,468
462,463
463,465
464,470
465,483
466,472
467,476
468,486
469,499
470,520
471,521
472,532
473,543
474,534
475,531
476,526
477,533
478,541
479,543
480,550
481,532
482,531
483,540
484,535
485,514
486,481
487,467
488,467
489,484
490,494
491,483
492,495
493,520
494,519
495,525
496,503
497,484
498,474
499,478
500,499
501,503
502,519
503,538
504,545
505,542
506,527
507,531
508,540
509,563
510,570
511,552
512,535
513,511
514,508
515,500
516,475
517,451
518,439
519,453
520,460
521,446
522,454
523,463
524,464
525,480
526,483
527,493
528,491
529,496
530,510
531,513
532,519
533,520
534,519
535,517
536,493
537,505
538,516
539,504
540,499
541,484
542,490
543,494
544,508
545,531
546,539
547,542
548,537
549,514
550,507
551,516
552,534
553,552
554,561
555,566
556,563
557,571
558,570
559,558
560,552
561,547
562,567
563,574
564,563
565,539
566,512
567,502
568,490
569,469
570,461
571,451
572,451
573,444
574,433
575,425
576,419
577,436
578,464
579,475
580,491
581,497
582,512
583,515
584,512
585,507
586,499
587,505
588,518
589,540
590,526
591,508
592,515
593,529
594,529
595,529
596,516
597,515
598,526
599,527
600,526
601,507
602,494
603,487
604,481
605,469
606,448
607,458
608,473
609,476
610,476
611,454
612,441
613,443
614,466
615,472
616,463
617,449
618,442
619,447
620,446
621,435
622,430
623,431
624,456
625,488
626,512
627,541
628,554
629,549
630,537
631,513
632,517
633,526
634,529
635,536
636,532
637,542
638,540
639,536
640,530
641,521
642,510
643,504
644,495
645,504
646,484
647,492
648,503
649,509
650,502
651,476
652,474
653,490
654,495
655,491
656,468
657,475
658,487
659,492
660,502
661,502
662,518
663,531
664,529
665,534
666,513
667,510
668,520
669,531
670,536
671,529
672,544
673,566
674,565
675,550
676,535
677,539
678,547
679,544
680,547
681,540
682,545
683,555
684,545
685,548
686,557
687,580
688,593
689,582
690,561
691,549
692,560
693,570
694,555
695,535
696,526
697,525
698,512
699,496
700,487
701,472
702,459
703,458
704,470
705,482
706,481
707,493
708,491
709,491
710,496
711,486
712,502
713,518
714,509
715,495
716,480
717,480
718,491
719,497
720,506
721,497
722,494
723,498
724,505
725,508
726,495
727,487
728,495
729,497
730,504
731,487
732,487
733,489
734,480
735,476
736,474
737,492
738,511
739,530
740,519
741,495
742,484
743,498
744,511
745,498
746,474
747,481
748,484
749,487
750,460
751,425
752,418
753,423
754,427
755,444
756,468
757,502
758,526
759,556
760,567
761,539
762,521
763,528
764,535
765,527
766,498
767,504
768,507
769,499
770,495
771,467
772,452
773,448
774,449
775,460
776,455
777,477
778,511
779,529
780,535
781,540
782,561
783,564
784,537
785,527
786,518
787,520
788,523
789,524
790,530
791,532
792,552
793,558
794,548
795,537
796,531
797,543
798,553
799,563
800,561
801,542
802,521
803,512
804,523
805,531
806,530
807,540
808,542
809,524
810,506
811,489
812,504
813,526
814,535
815,530
816,505
817,491
818,485
819,483
820,477
821,456
822,469
823,488
824,490
825,476
826,448
827,450
828,463
829,473
830,477
831,476
832,502
833,529
834,534
835,529
836,500
837,511
838,532
839,541
840,558
841,570
842,584
843,587
844,585
845,582
846,568
847,564
848,554
849,534
850,504
851,465
852,456
853,468
854,485
855,510
856,531
857,553
858,563
859,555
860,543
861,516
862,515
863,516
864,510
865,502
866,486
867,487
868,502
869,514
870,537
871,531
872,528
873,524
874,513
875,511
876,500
877,490
878,489
879,500
880,517
881,527
882,531
883,535
884,535
885,512
886,477
887,462
888,461
889,475
890,487
891,464
892,450
893,461
894,480
895,482
896,468
897,472
898,490
899,497
900,499
901,485
902,498
903,491
904,457
905,445
906,433
907,448
908,462
909,473
910,490
911,499
912,512
913,514
914,512
915,517
916,494
917,498
918,499
919,504
920,514
921,523
922,542
923,543
924,539
925,533
926,518
927,530
928,544
929,536
930,521
931,513
932,527
933,540
934,531
935,523
936,513
937,516
938,517
939,522
940,514
941,494
942,504
943,511
944,510
945,517
946,505
947,503
948,502
949,507
950,519
951,524
952,549
953,568
954,578
955,582
956,568
957,567
958,576
959,574
960,570
961,556
962,561
963,563
964,568
965,570
966,553
967,558
968,564
969,559
970,556
971,533
972,534
973,548
974,560
975,560
976,546
977,553
978,562
979,559
980,540
981,527
982,533
983,537
984,529
985,533
986,535
987,551
988,560
989,552
990,538
991,527
992,537
993,541
994,520
995,492
996,459
997,457
998,466
999,455
1000,447
1001,425
1002,430
1003,454
1004,468
1005,470
1006,467
1007,499
1008,511
1009,523
1010,518
1011,488
1012,478
1013,484
1014,482
1015,489
1016,484
1017,480
1018,480
1019,492
1020,497
1021,491
1022,501
1023,505
1024,493
1025,448
1026,395
1027,382
1028,379
1029,404
1030,430
1031,436
1032,434
1033,438
1034,458
1035,441
1036,406
1037,393
1038,415
1039,438
1040,474
1041,499
1042,536
1043,564
1044,577
1045,592
1046,566
1047,553
1048,559
1049,556
1050,558
1051,539
1052,519
1053,499
1054,490
1055,492
1056,494
1057,519
1058,543
1059,550
1060,560
1061,551
1062,558
1063,559
1064,536
1065,526
1066,507
1067,499
1068,502
1069,504
1070,509
1071,510
1072,523
1073,536
1074,527
1075,519
1076,516
1077,531
1078,552
1079,548
1080,540
1081,522
1082,527
1083,510
1084,504
1085,506
1086,504
1087,517
1088,526
1089,530
1090,531
1091,512
1092,506
1093,512
1094,513
1095,511
1096,494
1097,488
1098,497
1099,519
1100,532
1101,525
1102,535
1103,547
1104,552
1105,555
1106,555
1107,566
1108,579
1109,588
1110,575
1111,547
1112,529
1113,519
1114,517
1115,519
1116,513
1117,500
1118,480
1119,466
1120,458
1121,462
1122,481
1123,500
1124,514
1125,500
1126,486
1127,483
1128,480
1129,473
1130,476
1131,468
1132,483
1133,497
1134,501
1135,496
1136,494
1137,499
1138,508
1139,508
1140,508
1141,487
1142,492
1143,488
1144,484
1145,476
1146,453
1147,454
1148,471
1149,489
1150,508
1151,526
1152,548
1153,564
1154,570
1155,565
1156,563
1157,574
1158,578
1159,569
1160,555
1161,546
1162,544
1163,541
1164,519
1165,514
1166,498
1167,495
1168,493
1169,491
1170,488
1171,484
1172,484
1173,491
1174,493
1175,495
1176,492
1177,497
1178,505
1179,496
1180,494
1181,493
1182,519
1183,544
1184,562
1185,561
1186,539
1187,527
1188,520
1189,523
1190,529
1191,510
1192,507
1193,500
1194,492
1195,501
1196,493
1197,496
1198,494
1199,493
1200,509
1201,519
1202,527
1203,525
1204,521
1205,531
1206,539
1207,561
1208,567
1209,532
1210,512
1211,498
1212,507
1213,521
1214,527
1215,524
1216,523
1217,534
1218,535
1219,523
1220,501
1221,472
1222,464
1223,466
1224,470
1225,472
1226,476
1227,496
1228,502
1229,508
1230,483
1231,457
1232,462
1233,481
1234,495
1235,495
1236,478
1237,481
1238,490
1239,486
1240,484
1241,476
1242,477
1243,487
1244,496
1245,512
1246,504
1247,508
1248,507
1249,510
1250,515
1251,508
1252,519
1253,541
1254,547
1255,550
1256,544
1257,544
1258,547
1259,543
1260,522
1261,498
1262,508
1263,514
1264,538
1265,551
1266,537
1267,539
1268,550
1269,558
1270,558
1271,557
1272,568
1273,571
1274,541
1275,511
1276,480
1277,465
1278,467
1279,465
1280,472
1281,481
1282,493
1283,499
1284,494
1285,491
1286,502
1287,528
1288,543
1289,516
1290,499
1291,489
1292,495
1293,512
1294,520
1295,531
1296,540
1297,560
1298,566
1299,559
1300,545
1301,527
1302,533
1303,509
1304,498
1305,463
1306,413
1307,396
1308,401
1309,416
1310,436
1311,450
1312,472
1313,504
1314,525
1315,539
1316,513
1317,500
1318,496
1319,497
1320,508
1321,508
1322,519
1323,531
1324,540
1325,553
1326,535
1327,533
1328,534
1329,528
1330,517
1331,483
1332,473
1333,484
1334,490
1335,504
1336,505
1337,512
1338,525
1339,534
1340,517
1341,489
1342,483
1343,489
1344,515
1345,526
1346,501
1347,498
1348,498
1349,517
1350,523
1351,514
1352,523
1353,536
1354,553
1355,527
1356,488
1357,473
1358,470
1359,476
1360,497
1361,511
1362,526
1363,541
1364,541
1365,538
1366,515
1367,514
1368,514
1369,499
1370,489
1371,463
1372,443
1373,440
1374,453
1375,461
1376,456
1377,462
1378,472
1379,487
1380,499
1381,474
1382,454
1383,440
1384,440
1385,450
1386,452
1387,475
1388,502
1389,524
1390,542
1391,543
1392,545
1393,553
1394,558
1395,561
1396,561
1397,571
1398,574
1399,574
1400,578
1401,578
1402,589
1403,599
1404,598
1405,596
1406,582
1407,578
1408,579
1409,568
1410,561
1411,550
1412,540
1413,515
1414,492
1415,478
1416,464
1417,472
1418,494
1419,516
1420,502
1421,476
1422,464
1423,459
1424,480
1425,491
1426,489
1427,495
1428,499
1429,489
1430,480
1431,464
1432,473
1433,482
1434,497
1435,508
1436,506
1437,512
1438,508
1439,503
1440,493
1441,478
1442,476
1443,472
1444,480
1445,494
1446,496
1447,511
1448,537
1449,549
1450,560
1451,548
1452,551
1453,578
1454,601
1455,613
1456,608
1457,604
1458,593
1459,568
1460,551
1461,543
1462,540
1463,551
1464,550
1465,548
1466,529
1467,527
1468,540
1469,548
1470,544
1471,531
1472,540
1473,543
1474,540
1475,541
1476,531
1477,533
1478,527
1479,515
1480,509
1481,494
1482,506
1483,502
1484,487
1485,472
1486,444
1487,439
1488,452
1489,460
1490,469
1491,469
1492,490
1493,508
1494,523
1495,512
1496,499
1497,489
1498,470
1499,464
1500,449
1501,432
1502,417
1503,400
1504,389
1505,381
1506,374
1507,375
1508,380
1509,391
1510,403
1511,400
1512,407
1513,416
1514,419
1515,440
1516,437
1517,452
1518,471
1519,481
1520,491
1521,492
1522,492
1523,502
1524,507
1525,519
1526,510
1527,519
1528,544
1529,565
1530,563
1531,539
1532,535
1533,534
1534,525
1535,502
1536,473
1537,461
1538,455
1539,464
1540,477
1541,465
1542,475
1543,483
1544,484
1545,496
1546,483
1547,483
1548,504
1549,538
1550,561
1551,551
1552,556
1553,562
1554,568
1555,571
1556,550
1557,541
1558,534
1559,530
1560,534
1561,523
1562,525
1563,527
1564,515
1565,515
1566,507
1567,517
1568,526
1569,519
1570,503
1571,493
1572,503
1573,511
1574,510
1575,504
1576,494
1577,485
1578,492
1579,490
1580,500
1581,493
1582,506
1583,503
1584,501
1585,509
1586,519
1587,538
1588,545
1589,543
1590,544
1591,554
1592,575
1593,596
1594,599
1595,589
1596,580
1597,581
1598,569
1599,545
1600,523
1601,512
1602,532
1603,563
1604,583
1605,589
1606,573
1607,569
1608,564
1609,555
1610,542
1611,515
1612,509
1613,514
1614,519
1615,529
1616,518
1617,533
1618,529
1619,516
1620,516
1621,518
1622,530
1623,538
1624,536
1625,530
1626,516
1627,512
1628,499
1629,488
1630,477
1631,461
1632,451
1633,447
1634,454
1635,461
1636,448
1637,433
1638,443
1639,482
1640,504
1641,501
1642,496
1643,502
1644,519
1645,540
1646,561
1647,567
1648,550
1649,506
1650,475
1651,448
1652,448
1653,465
1654,455
1655,445
1656,432
1657,448
1658,452
1659,455
1660,470
1661,466
1662,492
1663,517
1664,542
1665,543
1666,518
1667,508
1668,518
1669,524
1670,542
1671,543
1672,543
1673,543
1674,533
1675,510
1676,479
1677,460
1678,452
1679,453
1680,470
1681,480
1682,489
1683,496
1684,525
1685,526
1686,518
1687,518
1688,523
1689,532
1690,538
1691,534
1692,553
1693,560
1694,549
1695,534
1696,526
1697,541
1698,556
1699,563
1700,566
1701,543
1702,543
1703,555
1704,569
1705,572
1706,544
1707,521
1708,505
1709,502
1710,477
1711,463
1712,480
1713,510
1714,503
1715,509
1716,494
1717,507
1718,513
1719,518
1720,521
1721,522
1722,532
1723,540
1724,543
1725,557
1726,551
1727,546
1728,539
1729,531
1730,531
1731,517
1732,513
1733,524
1734,519
1735,523
1736,513
1737,514
1738,529
1739,526
1740,527
1741,505
1742,508
1743,500
1744,502
1745,505
1746,488
1747,483
1748,490
1749,482
1750,483
1751,484
1752,507
1753,512
1754,481
1755,445
1756,426
1757,441
1758,457
1759,471
1760,466
1761,466
1762,477
1763,486
1764,507
1765,520
1766,523
1767,518
1768,505
1769,504
1770,491
1771,470
1772,471
1773,483
1774,502
1775,496
1776,493
1777,516
1778,535
1779,533
1780,518
1781,494
1782,486
1783,499
1784,515
1785,522
1786,511
1787,502
1788,496
1789,499
1790,500
1791,473
1792,480
1793,508
1794,515
1795,519
1796,511
1797,520
1798,525
1799,524
1800,528
1801,528
1802,532
1803,534
1804,527
1805,529
1806,530
1807,545
1808,552
1809,536
1810,515
1811,496
1812,499
1813,507
1814,487
1815,463
1816,440
1817,441
1818,428
1819,416
1820,422
1821,426
1822,442
1823,470
1824,498
1825,509
1826,512
1827,526
1828,532
1829,518
1830,500
1831,478
1832,488
1833,506
1834,524
1835,532
1836,515
1837,515
1838,514
1839,499
1840,496
1841,483
1842,480
1843,491
1844,510
1845,526
1846,508
1847,503
1848,504
1849,518
1850,540
1851,542
1852,560
1853,579
1854,586
1855,587
1856,572
1857,572
1858,569
1859,547
1860,524
1861,502
1862,513
1863,535
1864,552
1865,563
1866,558
1867,556
1868,543
1869,525
1870,500
1871,473
1872,452
1873,446
1874,464
1875,464
1876,433
1877,418
1878,415
1879,436
1880,442
1881,444
1882,451
1883,463
1884,491
1885,488
1886,470
1887,444
1888,427
1889,430
1890,428
1891,419
1892,421
1893,436
1894,469
1895,469
1896,457
1897,462
1898,471
1899,495
1900,516
1901,520
1902,531
1903,545
1904,569
1905,591
1906,567
1907,526
1908,508
1909,491
1910,494
1911,481
1912,494
1913,515
1914,529
1915,529
1916,512
1917,518
1918,530
1919,538
1920,536
1921,528
1922,530
1923,530
1924,547
1925,558
1926,557
1927,551
1928,547
1929,543
1930,535
1931,513
1932,509
1933,515
1934,508
1935,496
1936,481
1937,480
1938,490
1939,508
1940,523
1941,508
1942,491
1943,482
1944,476
1945,481
1946,491
1947,497
1948,508
1949,509
1950,511
1951,497
1952,495
1953,486
1954,474
1955,479
1956,480
1957,458
1958,448
1959,465
1960,482
1961,480
1962,489
1963,501
1964,495
1965,499
1966,514
1967,516
1968,513
1969,501
1970,503
1971,491
1972,491
1973,498
1974,519
1975,515
1976,510
1977,509
1978,509
1979,496
1980,485
1981,449
1982,438
1983,448
1984,467
1985,485
1986,476
1987,479
1988,486
1989,491
1990,497
1991,504
1992,516
1993,538
1994,544
1995,543
1996,534
1997,538
1998,550
1999,571
