timestamp,signal
0,563
1,565
2,551
3,530
4,522
5,524
6,543
7,545
8,536
9,531
10,532
11,540
12,545
13,543
14,541
15,543
16,553
17,561
18,545
19,529
20,525
21,512
22,483
23,458
24,476
25,495
26,492
27,500
28,496
29,507
30,495
31,502
32,501
33,483
34,475
35,484
36,499
37,519
38,508
39,510
40,517
41,517
42,507
43,486
44,497
45,513
46,519
47,531
48,531
49,540
50,539
51,535
52,534
53,523
54,539
55,547
56,536
57,538
58,530
59,537
60,547
61,547
62,541
63,515
64,519
65,529
66,524
67,515
68,510
69,529
70,546
71,547
72,550
73,550
74,564
75,557
76,537
77,513
78,497
79,505
80,501
81,472
82,461
83,468
84,487
85,507
86,500
87,492
88,485
89,488
90,489
91,476
92,463
93,439
94,433
95,442
96,460
97,480
98,493
99,491
100,500
101,507
102,517
103,507
104,519
105,530
106,543
107,550
108,544
109,542
110,540
111,541
112,541
113,525
114,528
115,524
116,525
117,538
118,550
119,546
120,521
121,495
122,468
123,444
124,427
125,421
126,430
127,415
128,396
129,411
130,440
131,455
132,461
133,449
134,454
135,465
136,466
137,475
138,464
139,464
140,460
141,474
142,493
143,492
144,515
145,519
146,518
147,524
148,528
149,539
150,536
151,524
152,512
153,498
154,504
155,509
156,512
157,519
158,513
159,522
160,531
161,521
162,525
163,511
164,501
165,498
166,497
167,499
168,488
169,487
170,480
171,463
172,454
173,455
174,480
175,497
176,511
177,512
178,489
179,484
180,503
181,500
182,485
183,464
184,453
185,453
186,464
187,478
188,486
189,502
190,512
191,511
192,520
193,516
194,519
195,518
196,507
197,505
198,478
199,465
200,471
201,455
202,460
203,467
204,476
205,493
206,484
207,491
208,496
209,502
210,509
211,507
212,502
213,504
214,531
215,547
216,555
217,552
218,544
219,556
220,567
221,544
222,537
223,534
224,537
225,544
226,524
227,502
228,477
229,475
230,471
231,456
232,451
233,440
234,450
235,472
236,494
237,510
238,505
239,531
240,526
241,533
242,545
243,534
244,528
245,525
246,527
247,533
248,524
249,537
250,544
251,543
252,534
253,510
254,513
255,537
256,551
257,551
258,541
259,543
260,552
261,564
262,574
263,553
264,526
265,517
266,512
267,499
268,480
269,475
270,476
271,483
272,494
273,475
274,476
275,482
276,477
277,487
278,493
279,521
280,542
281,542
282,540
283,539
284,560
285,567
286,570
287,576
288,564
289,554
290,540
291,522
292,509
293,505
294,529
295,539
296,546
297,552
298,534
299,522
300,512
301,517
302,518
303,502
304,487
305,470
306,476
307,489
308,495
309,497
310,496
311,515
312,512
313,494
314,501
315,509
316,501
317,499
318,482
319,485
320,488
321,497
322,522
323,518
324,523
325,535
326,534
327,533
328,526
329,519
330,519
331,521
332,514
333,497
334,507
335,533
336,550
337,537
338,494
339,473
340,468
341,464
342,471
343,478
344,508
345,520
346,515
347,522
348,520
349,521
350,514
351,500
352,489
353,455
354,450
355,456
356,487
357,520
358,526
359,538
360,539
361,530
362,519
363,488
364,481
365,487
366,473
367,464
368,455
369,474
370,491
371,489
372,487
373,487
374,511
375,537
376,545
377,544
378,535
379,531
380,534
381,519
382,507
383,501
384,505
385,511
386,503
387,497
388,489
389,476
390,460
391,460
392,454
393,427
394,416
395,429
396,450
397,465
398,439
399,435
400,463
401,476
402,494
403,496
404,515
405,538
406,554
407,559
408,535
409,520
410,512
411,512
412,516
413,516
414,528
415,531
416,532
417,537
418,518
419,503
420,492
421,487
422,474
423,463
424,485
425,507
426,508
427,503
428,502
429,525
430,553
431,553
432,545
433,531
434,537
435,547
436,564
437,551
438,543
439,558
440,574
441,593
442,601
443,588
444,583
445,578
446,574
447,567
448,548
449,534
450,518
451,508
452,506
453,496
454,516
455,532
456,550
457,563
458,544
459,538
460,531
461,518
462,520
463,533
464,554
465,542
466,545
467,527
468,495
469,482
470,483
471,490
472,468
473,439
474,420
475,415
476,432
477,433
478,424
479,412
480,405
481,429
482,446
483,459
484,482
485,500
486,507
487,519
488,515
489,520
490,526
491,520
492,525
493,519
494,533
495,538
496,533
497,536
498,515
499,504
500,506
501,516
502,533
503,534
504,552
505,569
506,580
507,586
508,564
509,558
510,559
511,565
512,555
513,556
514,560
515,561
516,541
517,527
518,512
519,506
520,509
521,509
522,478
523,452
524,440
525,444
526,439
527,441
528,452
529,478
530,504
531,527
532,544
533,542
534,549
535,553
536,548
537,536
538,515
539,519
540,535
541,550
542,543
543,511
544,510
545,523
546,532
547,536
548,524
549,515
550,512
551,499
552,469
553,438
554,432
555,429
556,434
557,427
558,415
559,420
560,429
561,462
562,468
563,481
564,501
565,504
566,512
567,501
568,479
569,468
570,467
571,472
572,480
573,484
574,494
575,491
576,475
577,461
578,442
579,452
580,467
581,482
582,494
583,490
584,514
585,535
586,556
587,540
588,525
589,527
590,519
591,515
592,516
593,495
594,496
595,512
596,525
597,540
598,533
599,519
600,505
601,508
602,503
603,488
604,487
605,506
606,528
607,536
608,531
609,540
610,556
611,539
612,521
613,495
614,483
615,485
616,481
617,484
618,475
619,478
620,483
621,483
622,499
623,506
624,517
625,532
626,547
627,549
628,529
629,526
630,529
631,513
632,520
633,504
634,499
635,513
636,514
637,525
638,531
639,549
640,538
641,502
642,460
643,427
644,437
645,445
646,443
647,445
648,455
649,475
650,493
651,515
652,536
653,523
654,529
655,542
656,556
657,559
658,541
659,538
660,537
661,541
662,547
663,539
664,526
665,510
666,519
667,515
668,476
669,436
670,412
671,425
672,437
673,439
674,434
675,425
676,423
677,429
678,437
679,453
680,463
681,481
682,487
683,510
684,544
685,571
686,568
687,562
688,558
689,574
690,580
691,560
692,537
693,510
694,508
695,507
696,506
697,507
698,494
699,484
700,489
701,483
702,499
703,503
704,523
705,542
706,542
707,541
708,519
709,512
710,512
711,520
712,532
713,526
714,532
715,543
716,558
717,570
718,554
719,557
720,565
721,560
722,546
723,523
724,515
725,529
726,535
727,527
728,516
729,521
730,541
731,555
732,582
733,566
734,560
735,562
736,551
737,537
738,520
739,513
740,516
741,521
742,522
743,514
744,523
745,534
746,531
747,518
748,494
749,479
750,483
751,483
752,488
753,471
754,472
755,487
756,500
757,515
758,523
759,536
760,545
761,548
762,558
763,563
764,573
765,583
766,579
767,580
768,567
769,556
770,563
771,575
772,577
773,562
774,569
775,574
776,557
777,545
778,507
779,507
780,514
781,522
782,521
783,515
784,526
785,541
786,524
787,510
788,479
789,469
790,455
791,459
792,462
793,457
794,463
795,471
796,469
797,468
798,456
799,461
800,459
801,457
802,451
803,455
804,474
805,480
806,485
807,494
808,494
809,503
810,517
811,520
812,518
813,497
814,499
815,499
816,498
817,497
818,484
819,481
820,467
821,462
822,450
823,442
824,460
825,485
826,515
827,537
828,523
829,513
830,509
831,510
832,512
833,514
834,511
835,506
836,507
837,490
838,461
839,446
840,453
841,465
842,451
843,437
844,438
845,458
846,484
847,485
848,473
849,487
850,485
851,502
852,510
853,505
854,491
855,504
856,520
857,543
858,500
859,484
860,486
861,488
862,496
863,495
864,519
865,542
866,551
867,553
868,543
869,551
870,545
871,527
872,504
873,471
874,469
875,476
876,481
877,493
878,491
879,496
880,504
881,498
882,504
883,513
884,531
885,543
886,545
887,550
888,545
889,551
890,556
891,536
892,517
893,489
894,469
895,451
896,433
897,420
898,405
899,406
900,413
901,424
902,440
903,434
904,460
905,489
906,502
907,527
908,526
909,527
910,542
911,561
912,565
913,545
914,536
915,530
916,522
917,531
918,529
919,530
920,524
921,509
922,508
923,495
924,494
925,508
926,512
927,519
928,517
929,532
930,552
931,558
932,546
933,531
934,536
935,553
936,555
937,568
938,568
939,579
940,596
941,599
942,593
943,563
944,565
945,579
946,592
947,591
948,570
949,566
950,557
951,544
952,546
953,523
954,510
955,504
956,496
957,489
958,480
959,494
960,502
961,500
962,509
963,505
964,514
965,527
966,531
967,528
968,510
969,515
970,520
971,520
972,527
973,534
974,538
975,551
976,550
977,532
978,503
979,493
980,489
981,499
982,502
983,502
984,508
985,522
986,551
987,559
988,542
989,523
990,513
991,512
992,503
993,491
994,506
995,515
996,512
997,515
998,498
999,488
1000,490
1001,475
1002,457
1003,446
1004,456
1005,459
1006,469
1007,476
1008,474
1009,497
1010,524
1011,528
1012,520
1013,499
1014,503
1015,507
1016,512
1017,523
1018,525
1019,528
1020,537
1021,534
1022,531
1023,516
1024,526
1025,537
1026,539
1027,543
1028,523
1029,509
1030,505
1031,501
1032,507
1033,496
1034,499
1035,507
1036,487
1037,471
1038,457
1039,467
1040,482
1041,489
1042,494
1043,492
1044,496
1045,502
1046,507
1047,519
1048,527
1049,547
1050,537
1051,510
1052,485
1053,455
1054,450
1055,456
1056,469
1057,483
1058,483
1059,493
1060,505
1061,512
1062,537
1063,524
1064,536
1065,545
1066,546
1067,543
1068,529
1069,526
1070,528
1071,512
1072,504
1073,490
1074,492
1075,500
1076,507
1077,507
1078,492
1079,485
1080,487
1081,494
1082,468
1083,431
1084,419
1085,418
1086,429
1087,460
1088,485
1089,491
1090,490
1091,503
1092,511
1093,511
1094,515
1095,527
1096,536
1097,545
1098,536
1099,541
1100,543
1101,513
1102,496
1103,496
1104,500
1105,510
1106,521
1107,543
1108,540
1109,547
1110,545
1111,540
1112,542
1113,523
1114,524
1115,532
1116,540
1117,531
1118,498
1119,487
1120,481
1121,468
1122,482
1123,487
1124,492
1125,504
1126,508
1127,524
1128,542
1129,561
1130,563
1131,560
1132,558
1133,524
1134,515
1135,513
1136,507
1137,509
1138,503
1139,504
1140,518
1141,535
1142,548
1143,547
1144,556
1145,558
1146,562
1147,570
1148,550
1149,541
1150,537
1151,541
1152,529
1153,501
1154,481
1155,476
1156,487
1157,484
1158,477
1159,473
1160,475
1161,491
1162,487
1163,476
1164,475
1165,502
1166,528
1167,535
1168,507
1169,480
1170,468
1171,478
1172,489
1173,489
1174,492
1175,487
1176,461
1177,455
1178,449
1179,452
1180,469
1181,489
1182,510
1183,517
1184,542
1185,567
1186,594
1187,624
1188,615
1189,603
1190,577
1191,547
1192,521
1193,486
1194,468
1195,458
1196,454
1197,463
1198,456
1199,463
1200,465
1201,480
1202,475
1203,454
1204,442
1205,458
1206,464
1207,484
1208,497
1209,511
1210,516
1211,515
1212,532
1213,543
1214,565
1215,573
1216,575
1217,585
1218,563
1219,553
1220,544
1221,543
1222,557
1223,549
1224,545
1225,542
1226,531
1227,518
1228,495
1229,483
1230,470
1231,473
1232,478
1233,465
1234,441
1235,422
1236,438
1237,445
1238,436
1239,423
1240,423
1241,438
1242,444
1243,423
1244,406
1245,405
1246,428
1247,459
1248,478
1249,490
1250,496
1251,509
1252,494
1253,486
1254,480
1255,476
1256,493
1257,519
1258,524
1259,541
1260,558
1261,559
1262,556
1263,537
1264,546
1265,557
1266,567
1267,568
1268,552
1269,545
1270,529
1271,513
1272,504
1273,486
1274,487
1275,495
1276,495
1277,490
1278,467
1279,473
1280,482
1281,482
1282,492
1283,497
1284,510
1285,520
1286,532
1287,547
1288,548
1289,559
1290,568
1291,561
1292,552
1293,542
1294,544
1295,538
1296,521
1297,517
1298,521
1299,539
1300,537
1301,542
1302,540
1303,519
1304,507
1305,507
1306,502
1307,495
1308,488
1309,501
1310,522
1311,529
1312,532
1313,531
1314,537
1315,532
1316,520
1317,522
1318,505
1319,510
1320,521
1321,521
1322,515
1323,502
1324,501
1325,501
1326,497
1327,494
1328,487
1329,499
1330,521
1331,535
1332,543
1333,553
1334,561
1335,551
1336,538
1337,533
1338,525
1339,534
1340,547
1341,548
1342,545
1343,539
1344,550
1345,563
1346,540
1347,532
1348,516
1349,529
1350,563
1351,583
1352,577
1353,549
1354,527
1355,523
1356,527
1357,542
1358,531
1359,532
1360,529
1361,532
1362,530
1363,519
1364,518
1365,524
1366,536
1367,538
1368,519
1369,527
1370,537
1371,540
1372,548
1373,552
1374,548
1375,551
1376,566
1377,566
1378,537
1379,515
1380,499
1381,498
1382,496
1383,493
1384,491
1385,495
1386,520
1387,541
1388,546
1389,558
1390,553
1391,540
1392,540
1393,503
1394,483
1395,485
1396,494
1397,491
1398,484
1399,478
1400,483
1401,486
1402,485
1403,462
1404,464
1405,466
1406,468
1407,481
1408,495
1409,524
1410,545
1411,556
1412,566
1413,557
1414,557
1415,552
1416,562
1417,547
1418,526
1419,524
1420,509
1421,492
1422,483
1423,479
1424,499
1425,518
1426,524
1427,520
1428,510
1429,513
1430,508
1431,496
1432,497
1433,518
1434,546
1435,556
1436,546
1437,542
1438,545
1439,568
1440,572
1441,580
1442,564
1443,547
1444,531
1445,503
1446,460
1447,440
1448,432
1449,433
1450,434
1451,429
1452,428
1453,413
1454,433
1455,458
1456,478
1457,480
1458,473
1459,476
1460,481
1461,473
1462,467
1463,450
1464,457
1465,466
1466,467
1467,483
1468,473
1469,468
1470,470
1471,485
1472,498
1473,493
1474,481
1475,479
1476,492
1477,489
1478,468
1479,451
1480,448
1481,446
1482,450
1483,440
1484,444
1485,474
1486,467
1487,465
1488,458
1489,474
1490,500
1491,517
1492,529
1493,535
1494,543
1495,533
1496,512
1497,498
1498,482
1499,486
1500,505
1501,535
1502,561
1503,558
1504,562
1505,563
1506,563
1507,574
1508,543
1509,502
1510,458
1511,430
1512,412
1513,397
1514,395
1515,406
1516,424
1517,443
1518,445
1519,452
1520,456
1521,456
1522,451
1523,428
1524,419
1525,429
1526,440
1527,448
1528,462
1529,490
1530,518
1531,521
1532,521
1533,521
1534,532
1535,550
1536,553
1537,551
1538,555
1539,572
1540,580
1541,567
1542,559
1543,565
1544,559
1545,556
1546,539
1547,536
1548,519
1549,522
1550,523
1551,526
1552,540
1553,551
1554,573
1555,601
1556,588
1557,576
1558,558
1559,566
1560,563
1561,562
1562,555
1563,537
1564,531
1565,526
1566,526
1567,527
1568,509
1569,491
1570,473
1571,455
1572,444
1573,422
1574,432
1575,450
1576,472
1577,501
1578,500
1579,508
1580,518
1581,527
1582,533
1583,532
1584,549
1585,560
1586,551
1587,529
1588,502
1589,495
1590,490
1591,473
1592,466
1593,471
1594,498
1595,529
1596,546
1597,551
1598,547
1599,559
1600,577
1601,578
1602,572
1603,549
1604,535
1605,531
1606,531
1607,534
1608,524
1609,500
1610,486
1611,492
1612,492
1613,486
1614,487
1615,488
1616,503
1617,519
1618,514
1619,505
1620,505
1621,517
1622,536
1623,534
1624,539
1625,543
1626,545
1627,543
1628,534
1629,537
1630,524
1631,506
1632,521
1633,508
1634,515
1635,526
1636,537
1637,536
1638,513
1639,510
1640,513
1641,507
1642,501
1643,485
1644,492
1645,496
1646,489
1647,497
1648,505
1649,522
1650,530
1651,532
1652,523
1653,504
1654,502
1655,525
1656,512
1657,514
1658,514
1659,523
1660,515
1661,510
1662,520
1663,535
1664,556
1665,564
1666,566
1667,549
1668,532
1669,519
1670,511
1671,501
1672,508
1673,507
1674,511
1675,514
1676,502
1677,483
1678,455
1679,463
1680,472
1681,484
1682,471
1683,462
1684,474
1685,481
1686,476
1687,479
1688,482
1689,495
1690,505
1691,508
1692,510
1693,512
1694,515
1695,522
1696,513
1697,509
1698,515
1699,539
1700,541
1701,524
1702,510
1703,497
1704,502
1705,515
1706,506
1707,494
1708,464
1709,431
1710,394
1711,393
1712,411
1713,427
1714,455
1715,498
1716,520
1717,537
1718,524
1719,543
1720,558
1721,561
1722,553
1723,518
1724,507
1725,504
1726,502
1727,492
1728,454
1729,433
1730,438
1731,454
1732,483
1733,503
1734,534
1735,552
1736,563
1737,575
1738,575
1739,577
1740,578
1741,561
1742,544
1743,511
1744,504
1745,505
1746,493
1747,477
1748,476
1749,497
1750,522
1751,533
1752,539
1753,555
1754,552
1755,545
1756,546
1757,544
1758,513
1759,529
1760,544
1761,541
1762,535
1763,516
1764,512
1765,518
1766,531
1767,545
1768,549
1769,562
1770,572
1771,571
1772,564
1773,545
1774,547
1775,544
1776,542
1777,554
1778,540
1779,539
1780,547
1781,552
1782,568
1783,575
1784,590
1785,601
1786,603
1787,606
1788,593
1789,587
1790,572
1791,524
1792,477
1793,445
1794,446
1795,462
1796,468
1797,475
1798,489
1799,507
1800,511
1801,493
1802,483
1803,470
1804,475
1805,488
1806,497
1807,515
1808,511
1809,510
1810,512
1811,508
1812,509
1813,483
1814,486
1815,488
1816,485
1817,496
1818,491
1819,495
1820,500
1821,504
1822,519
1823,517
1824,530
1825,548
1826,555
1827,556
1828,548
1829,549
1830,556
1831,557
1832,540
1833,502
1834,488
1835,494
1836,492
1837,500
1838,487
1839,469
1840,463
1841,482
1842,491
1843,480
1844,467
1845,456
1846,452
1847,450
1848,424
1849,416
1850,400
1851,406
1852,397
1853,385
1854,383
1855,391
1856,425
1857,453
1858,464
1859,485
1860,493
1861,491
1862,495
1863,490
1864,503
1865,527
1866,532
1867,533
1868,517
1869,511
1870,504
1871,497
1872,500
1873,485
1874,483
1875,495
1876,500
1877,505
1878,499
1879,519
1880,526
1881,516
1882,514
1883,498
1884,488
1885,485
1886,481
1887,480
1888,479
1889,486
1890,496
1891,500
1892,500
1893,495
1894,508
1895,532
1896,542
1897,536
1898,521
1899,522
1900,532
1901,535
1902,522
1903,499
1904,499
1905,512
1906,515
1907,516
1908,505
1909,496
1910,496
1911,496
1912,507
1913,504
1914,506
1915,510
1916,500
1917,502
1918,500
1919,516
1920,531
1921,522
1922,510
1923,488
1924,490
1925,506
1926,535
1927,558
1928,564
1929,547
1930,534
1931,536
1932,547
1933,541
1934,536
1935,539
1936,550
1937,555
1938,543
1939,540
1940,540
1941,513
1942,471
1943,428
1944,432
1945,448
1946,464
1947,477
1948,472
1949,481
1950,501
1951,515
1952,530
1953,510
1954,510
1955,524
1956,527
1957,527
1958,502
1959,497
1960,492
1961,487
1962,492
1963,481
1964,480
1965,489
1966,497
1967,505
1968,509
1969,510
1970,517
1971,509
1972,502
1973,496
1974,518
1975,548
1976,560
1977,569
1978,567
1979,565
1980,578
1981,585
1982,585
1983,579
1984,575
1985,573
1986,560
1987,553
1988,537
1989,524
1990,517
1991,528
1992,527
1993,515
1994,529
1995,546
1996,555
1997,558
1998,531
1999,527
