timestamp,signal
0,476
1,494
2,501
3,510
4,521
5,543
6,556
7,551
8,548
9,546
10,554
11,561
12,540
13,528
14,534
15,550
16,543
17,521
18,497
19,478
20,477
21,487
22,488
23,490
24,484
25,479
26,480
27,462
28,454
29,453
30,448
31,453
32,456
33,467
34,476
35,475
36,477
37,468
38,484
39,499
40,503
41,515
42,519
43,526
44,527
45,526
46,534
47,533
48,547
49,560
50,564
51,570
52,561
53,566
54,559
55,552
56,540
57,512
58,495
59,496
60,513
61,507
62,481
63,446
64,433
65,456
66,469
67,472
68,480
69,492
70,502
71,520
72,514
73,500
74,488
75,483
76,475
77,470
78,493
79,514
80,530
81,544
82,540
83,555
84,566
85,553
86,556
87,535
88,540
89,542
90,545
91,551
92,529
93,510
94,494
95,476
96,472
97,472
98,478
99,492
100,489
101,499
102,506
103,529
104,541
105,562
106,585
107,583
108,580
109,586
110,577
111,578
112,569
113,576
114,588
115,586
116,579
117,556
118,547
119,547
120,540
121,520
122,501
123,504
124,499
125,497
126,512
127,523
128,549
129,560
130,537
131,521
132,497
133,484
134,468
135,457
136,458
137,457
138,483
139,526
140,531
141,548
142,540
143,546
144,547
145,536
146,533
147,518
148,510
149,505
150,513
151,507
152,513
153,522
154,528
155,537
156,543
157,532
158,526
159,513
160,512
161,522
162,526
163,527
164,520
165,511
166,511
167,500
168,490
169,489
170,503
171,508
172,507
173,523
174,530
175,516
176,496
177,455
178,446
179,455
180,459
181,476
182,471
183,481
184,498
185,492
186,505
187,514
188,523
189,532
190,539
191,548
192,533
193,519
194,523
195,530
196,532
197,498
198,493
199,500
200,510
201,519
202,510
203,518
204,516
205,507
206,500
207,486
208,491
209,500
210,499
211,501
212,486
213,491
214,506
215,515
216,520
217,511
218,503
219,487
220,470
221,476
222,470
223,479
224,491
225,495
226,501
227,494
228,507
229,529
230,539
231,546
232,527
233,510
234,506
235,508
236,511
237,496
238,482
239,472
240,473
241,467
242,451
243,440
244,436
245,441
246,428
247,413
248,387
249,398
250,429
251,457
252,461
253,484
254,499
255,499
256,515
257,511
258,522
259,525
260,513
261,516
262,517
263,534
264,542
265,540
266,540
267,529
268,523
269,521
270,520
271,540
272,550
273,566
274,571
275,562
276,535
277,512
278,524
279,535
280,544
281,548
282,552
283,560
284,566
285,556
286,551
287,544
288,544
289,548
290,533
291,523
292,513
293,506
294,495
295,472
296,456
297,461
298,484
299,512
300,530
301,547
302,551
303,559
304,568
305,553
306,544
307,539
308,548
309,549
310,534
311,527
312,531
313,542
314,553
315,549
316,547
317,530
318,513
319,507
320,515
321,512
322,511
323,517
324,519
325,510
326,507
327,491
328,504
329,520
330,517
331,509
332,499
333,498
334,496
335,495
336,494
337,480
338,481
339,492
340,504
341,521
342,514
343,529
344,541
345,539
346,534
347,510
348,509
349,522
350,517
351,509
352,493
353,492
354,503
355,504
356,501
357,492
358,496
359,503
360,499
361,494
362,499
363,510
364,501
365,487
366,474
367,453
368,463
369,487
370,499
371,516
372,525
373,546
374,571
375,581
376,584
377,568
378,560
379,555
380,550
381,554
382,545
383,562
384,546
385,531
386,535
387,532
388,534
389,538
390,546
391,555
392,540
393,533
394,536
395,535
396,535
397,519
398,527
399,532
400,529
401,523
402,510
403,519
404,531
405,524
406,514
407,507
408,520
409,531
410,538
411,536
412,513
413,511
414,502
415,487
416,487
417,475
418,481
419,505
420,515
421,513
422,510
423,514
424,514
425,497
426,484
427,476
428,480
429,483
430,480
431,497
432,514
433,515
434,509
435,496
436,500
437,479
438,467
439,471
440,483
441,509
442,508
443,507
444,498
445,499
446,504
447,495
448,496
449,511
450,508
451,499
452,492
453,504
454,518
455,510
456,513
457,474
458,452
459,450
460,440
461,441
462,439
463,462
464,475
465,463
466,457
467,447
468,459
469,480
470,492
471,515
472,526
473,527
474,528
475,525
476,529
477,524
478,524
479,512
480,499
481,505
482,494
483,491
484,489
485,481
486,470
487,459
488,472
489,504
490,522
491,536
492,533
493,542
494,551
495,553
496,543
497,525
498,518
499,516
500,504
501,484
502,472
503,463
504,436
505,410
506,407
507,403
508,414
509,424
510,430
511,443
512,442
513,451
514,467
515,482
516,498
517,501
518,512
519,516
520,500
521,492
522,476
523,483
524,497
525,527
526,536
527,539
528,549
529,567
530,577
531,587
532,576
533,578
534,567
535,553
536,527
537,494
538,463
539,432
540,422
541,419
542,414
543,422
544,450
545,492
546,523
547,528
548,521
549,520
550,538
551,549
552,546
553,559
554,577
555,572
556,546
557,515
558,515
559,518
560,515
561,523
562,518
563,525
564,532
565,542
566,549
567,546
568,555
569,565
570,574
571,589
572,584
573,580
574,558
575,542
576,537
577,519
578,512
579,518
580,520
581,516
582,518
583,548
584,575
585,571
586,553
587,537
588,546
589,554
590,557
591,561
592,551
593,553
594,545
595,527
596,501
597,479
598,485
599,485
600,482
601,482
602,481
603,488
604,489
605,482
606,485
607,463
608,465
609,476
610,486
611,502
612,500
613,496
614,487
615,492
616,521
617,527
618,528
619,526
620,523
621,535
622,528
623,536
624,551
625,550
626,550
627,535
628,512
629,499
630,484
631,481
632,472
633,457
634,439
635,444
636,448
637,422
638,401
639,409
640,433
641,456
642,443
643,444
644,451
645,457
646,473
647,480
648,502
649,524
650,531
651,540
652,524
653,516
654,494
655,462
656,448
657,428
658,434
659,450
660,475
661,508
662,517
663,531
664,524
665,510
666,513
667,499
668,502
669,524
670,543
671,545
672,519
673,499
674,486
675,472
676,481
677,494
678,528
679,542
680,543
681,526
682,494
683,472
684,465
685,468
686,466
687,458
688,453
689,455
690,462
691,461
692,455
693,459
694,469
695,483
696,486
697,464
698,441
699,436
700,455
701,451
702,427
703,422
704,442
705,449
706,470
707,464
708,468
709,475
710,473
711,481
712,475
713,481
714,491
715,513
716,511
717,503
718,501
719,503
720,517
721,504
722,472
723,446
724,451
725,473
726,480
727,479
728,498
729,519
730,543
731,571
732,581
733,590
734,588
735,592
736,595
737,591
738,594
739,593
740,602
741,592
742,575
743,556
744,553
745,551
746,542
747,516
748,507
749,513
750,528
751,548
752,549
753,547
754,555
755,547
756,546
757,547
758,558
759,561
760,561
761,583
762,591
763,597
764,586
765,576
766,577
767,570
768,578
769,576
770,555
771,544
772,537
773,541
774,541
775,524
776,519
777,519
778,530
779,538
780,542
781,543
782,518
783,487
784,478
785,465
786,458
787,455
788,476
789,497
790,510
791,526
792,518
793,515
794,520
795,511
796,516
797,500
798,500
799,493
800,488
801,509
802,506
803,509
804,514
805,519
806,529
807,533
808,561
809,580
810,591
811,589
812,546
813,520
814,504
815,494
816,495
817,484
818,494
819,502
820,525
821,524
822,503
823,500
824,486
825,483
826,483
827,478
828,486
829,496
830,499
831,496
832,498
833,499
834,507
835,504
836,520
837,523
838,537
839,543
840,525
841,508
842,467
843,451
844,452
845,444
846,447
847,437
848,439
849,446
850,449
851,446
852,431
853,434
854,441
855,445
856,459
857,477
858,500
859,524
860,533
861,534
862,524
863,543
864,559
865,555
866,549
867,534
868,534
869,540
870,525
871,533
872,542
873,554
874,570
875,566
876,558
877,536
878,516
879,516
880,518
881,528
882,512
883,492
884,487
885,490
886,485
887,454
888,448
889,454
890,456
891,468
892,460
893,445
894,436
895,423
896,416
897,408
898,418
899,441
900,459
901,465
902,455
903,471
904,487
905,484
906,480
907,476
908,481
909,494
910,515
911,522
912,520
913,513
914,498
915,499
916,511
917,503
918,495
919,492
920,511
921,513
922,510
923,516
924,520
925,530
926,523
927,510
928,504
929,503
930,495
931,487
932,483
933,476
934,469
935,481
936,493
937,486
938,491
939,499
940,504
941,511
942,501
943,502
944,512
945,509
946,513
947,502
948,514
949,537
950,546
951,556
952,559
953,563
954,563
955,569
956,566
957,543
958,539
959,544
960,550
961,558
962,542
963,541
964,536
965,536
966,519
967,488
968,492
969,515
970,531
971,546
972,553
973,549
974,529
975,517
976,516
977,513
978,524
979,536
980,551
981,569
982,567
983,577
984,578
985,568
986,564
987,545
988,537
989,539
990,543
991,547
992,529
993,545
994,541
995,547
996,556
997,538
998,531
999,527
1000,521
1001,511
1002,479
1003,470
1004,462
1005,461
1006,473
1007,494
1008,528
1009,559
1010,577
1011,580
1012,575
1013,584
1014,582
1015,551
1016,534
1017,520
1018,523
1019,526
1020,523
1021,530
1022,524
1023,515
1024,509
1025,499
1026,499
1027,489
1028,505
1029,525
1030,528
1031,516
1032,504
1033,514
1034,528
1035,527
1036,534
1037,548
1038,556
1039,558
1040,549
1041,542
1042,539
1043,539
1044,537
1045,534
1046,527
1047,506
1048,508
1049,511
1050,512
1051,519
1052,519
1053,516
1054,510
1055,507
1056,513
1057,509
1058,526
1059,539
1060,548
1061,548
1062,519
1063,515
1064,518
1065,511
1066,509
1067,492
1068,492
1069,500
1070,498
1071,503
1072,492
1073,480
1074,461
1075,452
1076,463
1077,459
1078,476
1079,489
1080,498
1081,520
1082,529
1083,537
1084,536
1085,517
1086,512
1087,502
1088,523
1089,532
1090,533
1091,532
1092,536
1093,548
1094,552
1095,540
1096,521
1097,514
1098,521
1099,533
1100,521
1101,503
1102,459
1103,413
1104,396
1105,392
1106,396
1107,384
1108,387
1109,395
1110,384
1111,390
1112,396
1113,417
1114,447
1115,466
1116,482
1117,483
1118,502
1119,523
1120,523
1121,522
1122,509
1123,499
1124,497
1125,503
1126,515
1127,516
1128,539
1129,554
1130,550
1131,543
1132,521
1133,512
1134,504
1135,511
1136,522
1137,517
1138,517
1139,511
1140,502
1141,501
1142,487
1143,493
1144,496
1145,486
1146,479
1147,466
1148,471
1149,482
1150,494
1151,498
1152,479
1153,471
1154,466
1155,464
1156,481
1157,487
1158,508
1159,532
1160,547
1161,553
1162,533
1163,536
1164,534
1165,511
1166,510
1167,499
1168,512
1169,531
1170,542
1171,555
1172,566
1173,585
1174,600
1175,606
1176,590
1177,561
1178,554
1179,558
1180,548
1181,540
1182,541
1183,554
1184,570
1185,581
1186,586
1187,575
1188,579
1189,559
1190,551
1191,551
1192,551
1193,552
1194,555
1195,569
1196,568
1197,562
1198,561
1199,549
1200,544
1201,518
1202,485
1203,474
1204,483
1205,512
1206,528
1207,529
1208,526
1209,529
1210,543
1211,532
1212,511
1213,478
1214,479
1215,497
1216,501
1217,493
1218,480
1219,472
1220,481
1221,494
1222,507
1223,524
1224,538
1225,497
1226,500
1227,508
1228,518
1229,526
1230,509
1231,505
1232,503
1233,509
1234,510
1235,509
1236,515
1237,505
1238,515
1239,519
1240,515
1241,515
1242,507
1243,511
1244,512
1245,504
1246,504
1247,497
1248,510
1249,531
1250,556
1251,577
1252,573
1253,572
1254,564
1255,564
1256,555
1257,533
1258,516
1259,524
1260,547
1261,560
1262,545
1263,511
1264,483
1265,481
1266,483
1267,491
1268,504
1269,515
1270,499
1271,483
1272,478
1273,490
1274,504
1275,504
1276,497
1277,472
1278,448
1279,432
1280,431
1281,448
1282,456
1283,466
1284,470
1285,459
1286,448
1287,439
1288,459
1289,472
1290,482
1291,498
1292,493
1293,493
1294,496
1295,489
1296,490
1297,483
1298,494
1299,509
1300,519
1301,510
1302,482
1303,477
1304,481
1305,474
1306,472
1307,449
1308,446
1309,473
1310,484
1311,486
1312,491
1313,509
1314,504
1315,499
1316,498
1317,486
1318,491
1319,495
1320,484
1321,480
1322,470
1323,473
1324,476
1325,459
1326,446
1327,441
1328,470
1329,501
1330,519
1331,537
1332,533
1333,522
1334,507
1335,492
1336,501
1337,500
1338,504
1339,520
1340,527
1341,525
1342,511
1343,527
1344,546
1345,553
1346,563
1347,551
1348,547
1349,543
1350,521
1351,509
1352,504
1353,512
1354,527
1355,524
1356,527
1357,510
1358,496
1359,492
1360,501
1361,524
1362,520
1363,518
1364,514
1365,508
1366,515
1367,508
1368,521
1369,547
1370,562
1371,558
1372,544
1373,543
1374,536
1375,511
1376,494
1377,483
1378,486
1379,485
1380,469
1381,465
1382,471
1383,481
1384,483
1385,471
1386,478
1387,492
1388,507
1389,513
1390,506
1391,506
1392,493
1393,504
1394,526
1395,540
1396,544
1397,531
1398,537
1399,546
1400,554
1401,566
1402,569
1403,571
1404,560
1405,542
1406,527
1407,515
1408,530
1409,548
1410,545
1411,535
1412,526
1413,514
1414,506
1415,514
1416,499
1417,479
1418,479
1419,493
1420,520
1421,524
1422,510
1423,500
1424,493
1425,498
1426,492
1427,482
1428,493
1429,505
1430,513
1431,536
1432,540
1433,533
1434,529
1435,522
1436,528
1437,523
1438,532
1439,532
1440,524
1441,523
1442,507
1443,504
1444,514
1445,524
1446,537
1447,535
1448,543
1449,542
1450,541
1451,539
1452,527
1453,530
1454,504
1455,495
1456,503
1457,501
1458,496
1459,490
1460,460
1461,448
1462,435
1463,451
1464,473
1465,486
1466,489
1467,488
1468,497
1469,503
1470,510
1471,518
1472,513
1473,520
1474,518
1475,503
1476,498
1477,497
1478,514
1479,544
1480,554
1481,533
1482,512
1483,506
1484,483
1485,479
1486,477
1487,464
1488,476
1489,479
1490,474
1491,474
1492,468
1493,472
1494,481
1495,497
1496,515
1497,504
1498,497
1499,481
1500,449
1501,427
1502,420
1503,426
1504,419
1505,414
1506,411
1507,388
1508,387
1509,408
1510,439
1511,473
1512,487
1513,498
1514,511
1515,522
1516,521
1517,515
1518,532
1519,540
1520,542
1521,550
1522,547
1523,552
1524,559
1525,552
1526,556
1527,551
1528,560
1529,579
1530,571
1531,561
1532,536
1533,525
1534,517
1535,509
1536,519
1537,514
1538,519
1539,510
1540,497
1541,503
1542,483
1543,473
1544,476
1545,478
1546,494
1547,484
1548,476
1549,481
1550,486
1551,493
1552,497
1553,509
1554,516
1555,504
1556,499
1557,499
1558,505
1559,508
1560,493
1561,484
1562,470
1563,465
1564,454
1565,438
1566,428
1567,418
1568,423
1569,427
1570,418
1571,411
1572,391
1573,408
1574,422
1575,441
1576,474
1577,481
1578,485
1579,486
1580,484
1581,501
1582,509
1583,532
1584,552
1585,559
1586,563
1587,545
1588,536
1589,536
1590,538
1591,546
1592,540
1593,550
1594,550
1595,532
1596,516
1597,500
1598,483
1599,475
1600,487
1601,499
1602,499
1603,505
1604,507
1605,513
1606,521
1607,519
1608,536
1609,543
1610,538
1611,535
1612,530
1613,531
1614,527
1615,512
1616,503
1617,486
1618,486
1619,491
1620,486
1621,487
1622,496
1623,500
1624,509
1625,520
1626,523
1627,523
1628,531
1629,531
1630,518
1631,521
1632,513
1633,521
1634,515
1635,498
1636,485
1637,488
1638,513
1639,539
1640,546
1641,551
1642,536
1643,526
1644,515
1645,499
1646,491
1647,482
1648,505
1649,529
1650,558
1651,585
1652,585
1653,589
1654,576
1655,547
1656,537
1657,513
1658,498
1659,487
1660,470
1661,465
1662,470
1663,481
1664,473
1665,493
1666,503
1667,504
1668,504
1669,518
1670,538
1671,540
1672,533
1673,521
1674,514
1675,508
1676,479
1677,445
1678,422
1679,417
1680,418
1681,414
1682,405
1683,404
1684,407
1685,414
1686,431
1687,451
1688,495
1689,534
1690,538
1691,551
1692,537
1693,538
1694,541
1695,532
1696,516
1697,489
1698,479
1699,482
1700,479
1701,483
1702,484
1703,512
1704,524
1705,519
1706,519
1707,520
1708,532
1709,538
1710,529
1711,522
1712,496
1713,475
1714,459
1715,442
1716,442
1717,446
1718,467
1719,479
1720,485
1721,486
1722,477
1723,464
1724,467
1725,468
1726,472
1727,484
1728,508
1729,528
1730,536
1731,540
1732,529
1733,531
1734,524
1735,509
1736,502
1737,489
1738,495
1739,521
1740,543
1741,560
1742,551
1743,559
1744,558
1745,548
1746,550
1747,527
1748,503
1749,489
1750,486
1751,503
1752,510
1753,521
1754,529
1755,532
1756,543
1757,534
1758,529
1759,516
1760,488
1761,476
1762,463
1763,474
1764,492
1765,493
1766,494
1767,489
1768,509
1769,543
1770,565
1771,555
1772,524
1773,500
1774,506
1775,519
1776,526
1777,514
1778,500
1779,486
1780,491
1781,504
1782,511
1783,538
1784,553
1785,546
1786,537
1787,525
1788,523
1789,530
1790,518
1791,516
1792,526
1793,539
1794,546
1795,532
1796,523
1797,513
1798,493
1799,467
1800,465
1801,476
1802,475
1803,480
1804,498
1805,507
1806,518
1807,510
1808,515
1809,537
1810,549
1811,564
1812,562
1813,545
1814,533
1815,533
1816,548
1817,551
1818,551
1819,546
1820,566
1821,574
1822,552
1823,550
1824,551
1825,528
1826,504
1827,490
1828,505
1829,524
1830,527
1831,527
1832,529
1833,546
1834,556
1835,556
1836,549
1837,530
1838,534
1839,538
1840,544
1841,544
1842,531
1843,543
1844,551
1845,548
1846,534
1847,520
1848,510
1849,511
1850,524
1851,521
1852,509
1853,523
1854,534
1855,529
1856,539
1857,526
1858,511
1859,488
1860,461
1861,459
1862,456
1863,468
1864,486
1865,499
1866,519
1867,526
1868,537
1869,543
1870,539
1871,547
1872,564
1873,589
1874,605
1875,584
1876,552
1877,523
1878,517
1879,510
1880,491
1881,469
1882,467
1883,489
1884,512
1885,535
1886,553
1887,553
1888,550
1889,540
1890,531
1891,526
1892,515
1893,508
1894,504
1895,505
1896,497
1897,479
1898,484
1899,497
1900,512
1901,522
1902,506
1903,512
1904,522
1905,516
1906,519
1907,520
1908,539
1909,540
1910,526
1911,501
1912,483
1913,489
1914,507
1915,520
1916,543
1917,535
1918,516
1919,498
1920,492
1921,490
1922,474
1923,486
1924,504
1925,531
1926,543
1927,536
1928,524
1929,528
1930,528
1931,512
1932,489
1933,488
1934,481
1935,476
1936,476
1937,476
1938,497
1939,520
1940,529
1941,536
1942,517
1943,508
1944,508
1945,515
1946,534
1947,548
1948,555
1949,543
1950,521
1951,524
1952,526
1953,525
1954,516
1955,508
1956,513
1957,500
1958,498
1959,491
1960,491
1961,497
1962,487
1963,494
1964,512
1965,522
1966,518
1967,504
1968,497
1969,491
1970,490
1971,473
1972,442
1973,415
1974,390
1975,382
1976,389
1977,401
1978,407
1979,420
1980,440
1981,432
1982,425
1983,448
1984,457
1985,437
1986,434
1987,438
1988,458
1989,480
1990,483
1991,488
1992,495
1993,503
1994,505
1995,511
1996,521
1997,523
1998,542
1999,548
