timestamp,signal
0,552
1,571
2,579
3,592
4,602
5,592
6,573
7,552
8,545
9,558
10,560
11,559
12,546
13,547
14,550
15,547
16,535
17,508
18,502
19,507
20,509
21,515
22,519
23,539
24,553
25,562
26,569
27,562
28,561
29,572
30,585
31,594
32,593
33,595
34,591
35,570
36,551
37,535
38,516
39,519
40,517
41,513
42,510
43,521
44,542
45,556
46,554
47,522
48,508
49,510
50,515
51,509
52,491
53,493
54,495
55,487
56,491
57,496
58,524
59,545
60,542
61,539
62,511
63,507
64,498
65,506
66,507
67,492
68,487
69,488
70,472
71,452
72,439
73,454
74,471
75,489
76,508
77,518
78,543
79,551
80,531
81,496
82,471
83,470
84,470
85,483
86,461
87,444
88,440
89,451
90,469
91,471
92,463
93,461
94,463
95,472
96,479
97,476
98,493
99,487
100,495
101,506
102,499
103,501
104,504
105,501
106,500
107,499
108,507
109,528
110,551
111,571
112,561
113,551
114,543
115,531
116,513
117,497
118,511
119,522
120,532
121,535
122,521
123,526
124,527
125,514
126,503
127,504
128,518
129,526
130,541
131,543
132,525
133,505
134,494
135,485
136,499
137,513
138,526
139,551
140,579
141,604
142,615
143,619
144,610
145,604
146,601
147,580
148,572
149,563
150,548
151,531
152,500
153,483
154,478
155,487
156,483
157,468
158,469
159,463
160,464
161,476
162,497
163,527
164,538
165,516
166,502
167,491
168,498
169,508
170,498
171,493
172,483
173,479
174,480
175,483
176,490
177,498
178,519
179,526
180,526
181,525
182,512
183,509
184,506
185,507
186,505
187,497
188,503
189,517
190,530
191,529
192,514
193,527
194,537
195,536
196,535
197,524
198,535
199,519
200,521
201,524
202,512
203,508
204,502
205,488
206,466
207,444
208,446
209,465
210,475
211,460
212,446
213,443
214,438
215,442
216,439
217,428
218,430
219,439
220,441
221,440
222,439
223,448
224,451
225,463
226,465
227,459
228,479
229,500
230,512
231,521
232,528
233,522
234,525
235,518
236,514
237,495
238,503
239,508
240,512
241,512
242,498
243,499
244,507
245,519
246,518
247,509
248,510
249,517
250,532
251,535
252,521
253,515
254,497
255,484
256,487
257,473
258,464
259,454
260,440
261,440
262,430
263,438
264,456
265,475
266,483
267,476
268,474
269,466
270,463
271,468
272,483
273,502
274,520
275,520
276,518
277,499
278,495
279,511
280,512
281,510
282,505
283,508
284,513
285,527
286,524
287,503
288,498
289,504
290,498
291,483
292,456
293,452
294,462
295,478
296,481
297,475
298,467
299,474
300,493
301,497
302,496
303,503
304,517
305,506
306,494
307,466
308,448
309,451
310,480
311,497
312,516
313,541
314,554
315,557
316,548
317,558
318,556
319,558
320,563
321,568
322,559
323,556
324,551
325,524
326,495
327,484
328,493
329,505
330,518
331,525
332,519
333,518
334,516
335,510
336,514
337,515
338,519
339,533
340,544
341,545
342,539
343,547
344,550
345,545
346,532
347,509
348,494
349,488
350,476
351,453
352,422
353,420
354,438
355,453
356,461
357,456
358,464
359,468
360,481
361,473
362,466
363,462
364,475
365,497
366,503
367,491
368,483
369,477
370,492
371,503
372,475
373,470
374,466
375,472
376,470
377,462
378,467
379,481
380,481
381,463
382,434
383,425
384,419
385,430
386,456
387,468
388,475
389,477
390,497
391,502
392,487
393,482
394,480
395,486
396,491
397,486
398,498
399,509
400,518
401,520
402,494
403,484
404,492
405,506
406,523
407,527
408,534
409,543
410,540
411,555
412,535
413,540
414,551
415,545
416,534
417,527
418,533
419,524
420,511
421,497
422,485
423,493
424,509
425,531
426,536
427,534
428,544
429,546
430,527
431,498
432,474
433,471
434,486
435,515
436,527
437,527
438,525
439,519
440,519
441,495
442,472
443,461
444,473
445,486
446,490
447,496
448,502
449,516
450,533
451,530
452,515
453,512
454,501
455,504
456,510
457,503
458,489
459,476
460,486
461,503
462,505
463,503
464,485
465,477
466,467
467,461
468,467
469,480
470,498
471,510
472,515
473,537
474,558
475,568
476,566
477,551
478,541
479,540
480,537
481,523
482,500
483,485
484,476
485,476
486,493
487,497
488,512
489,534
490,542
491,549
492,558
493,557
494,543
495,539
496,534
497,517
498,521
499,527
500,533
501,538
502,530
503,532
504,546
505,566
506,575
507,577
508,595
509,615
510,638
511,629
512,612
513,609
514,608
515,601
516,587
517,567
518,556
519,549
520,547
521,524
522,486
523,478
524,480
525,495
526,491
527,496
528,500
529,504
530,509
531,495
532,478
533,477
534,492
535,503
536,503
537,496
538,503
539,518
540,520
541,509
542,485
543,484
544,503
545,519
546,524
547,517
548,517
549,528
550,539
551,528
552,515
553,509
554,499
555,497
556,499
557,497
558,501
559,496
560,493
561,501
562,504
563,508
564,515
565,514
566,505
567,493
568,496
569,502
570,498
571,498
572,487
573,492
574,512
575,533
576,537
577,522
578,516
579,521
580,534
581,536
582,518
583,504
584,493
585,485
586,477
587,476
588,486
589,478
590,468
591,479
592,504
593,527
594,558
595,581
596,593
597,588
598,586
599,588
600,574
601,553
602,535
603,543
604,555
605,553
606,539
607,523
608,540
609,552
610,549
611,555
612,550
613,540
614,540
615,545
616,555
617,556
618,562
619,562
620,560
621,572
622,556
623,550
624,538
625,526
626,522
627,501
628,487
629,482
630,487
631,498
632,495
633,507
634,506
635,497
636,496
637,494
638,503
639,497
640,488
641,477
642,464
643,464
644,472
645,480
646,483
647,478
648,492
649,512
650,532
651,538
652,529
653,528
654,531
655,534
656,515
657,487
658,478
659,477
660,491
661,514
662,521
663,527
664,525
665,522
666,515
667,515
668,521
669,523
670,541
671,537
672,518
673,484
674,455
675,449
676,435
677,424
678,432
679,447
680,463
681,456
682,437
683,431
684,423
685,438
686,471
687,489
688,499
689,511
690,524
691,527
692,520
693,526
694,548
695,556
696,526
697,501
698,495
699,493
700,498
701,489
702,480
703,485
704,492
705,498
706,501
707,482
708,476
709,472
710,481
711,503
712,521
713,542
714,548
715,539
716,523
717,508
718,504
719,506
720,519
721,525
722,502
723,489
724,480
725,476
726,462
727,448
728,457
729,486
730,489
731,501
732,493
733,499
734,508
735,512
736,508
737,500
738,513
739,538
740,539
741,534
742,524
743,519
744,512
745,484
746,454
747,423
748,419
749,432
750,459
751,471
752,467
753,473
754,485
755,488
756,481
757,466
758,468
759,482
760,500
761,503
762,483
763,477
764,484
765,482
766,468
767,463
768,464
769,479
770,498
771,505
772,499
773,515
774,536
775,548
776,540
777,519
778,513
779,521
780,524
781,531
782,513
783,529
784,542
785,532
786,518
787,506
788,519
789,527
790,547
791,568
792,586
793,606
794,602
795,591
796,585
797,568
798,548
799,529
800,524
801,531
802,527
803,532
804,540
805,547
806,544
807,531
808,537
809,549
810,561
811,579
812,582
813,584
814,576
815,563
816,534
817,500
818,494
819,489
820,498
821,508
822,505
823,515
824,522
825,518
826,502
827,481
828,478
829,491
830,508
831,510
832,504
833,502
834,492
835,477
836,486
837,487
838,496
839,503
840,504
841,499
842,484
843,480
844,481
845,499
846,502
847,490
848,475
849,467
850,463
851,467
852,471
853,485
854,501
855,506
856,486
857,437
858,427
859,438
860,460
861,476
862,463
863,456
864,463
865,470
866,472
867,465
868,476
869,492
870,508
871,513
872,509
873,508
874,503
875,508
876,507
877,507
878,494
879,501
880,513
881,522
882,524
883,533
884,544
885,557
886,555
887,545
888,549
889,568
890,575
891,575
892,557
893,551
894,548
895,553
896,568
897,584
898,605
899,611
900,611
901,605
902,578
903,546
904,536
905,542
906,543
907,535
908,525
909,518
910,515
911,518
912,516
913,505
914,481
915,458
916,458
917,469
918,494
919,516
920,525
921,525
922,511
923,508
924,518
925,518
926,499
927,491
928,467
929,459
930,472
931,495
932,494
933,504
934,513
935,507
936,499
937,493
938,501
939,524
940,545
941,550
942,533
943,524
944,515
945,515
946,517
947,508
948,511
949,520
950,523
951,515
952,497
953,500
954,520
955,539
956,542
957,527
958,531
959,534
960,540
961,551
962,506
963,489
964,494
965,515
966,527
967,526
968,524
969,532
970,550
971,536
972,504
973,472
974,463
975,478
976,497
977,504
978,494
979,476
980,473
981,455
982,442
983,455
984,479
985,493
986,501
987,492
988,499
989,509
990,507
991,514
992,510
993,513
994,517
995,526
996,525
997,519
998,521
999,521
1000,509
1001,482
1002,461
1003,472
1004,488
1005,503
1006,507
1007,495
1008,473
1009,455
1010,452
1011,449
1012,447
1013,455
1014,465
1015,466
1016,475
1017,484
1018,507
1019,531
1020,556
1021,569
1022,568
1023,556
1024,547
1025,544
1026,544
1027,534
1028,528
1029,523
1030,507
1031,510
1032,517
1033,529
1034,528
1035,504
1036,491
1037,502
1038,533
1039,550
1040,554
1041,556
1042,560
1043,572
1044,576
1045,581
1046,571
1047,547
1048,528
1049,518
1050,505
1051,502
1052,494
1053,498
1054,499
1055,487
1056,477
1057,462
1058,467
1059,479
1060,487
1061,489
1062,487
1063,488
1064,486
1065,493
1066,497
1067,484
1068,473
1069,472
1070,470
1071,475
1072,480
1073,495
1074,517
1075,540
1076,543
1077,526
1078,526
1079,532
1080,539
1081,516
1082,475
1083,467
1084,477
1085,486
1086,483
1087,476
1088,460
1089,455
1090,452
1091,438
1092,428
1093,429
1094,436
1095,455
1096,470
1097,469
1098,477
1099,500
1100,524
1101,551
1102,560
1103,554
1104,538
1105,529
1106,514
1107,495
1108,496
1109,500
1110,503
1111,515
1112,510
1113,515
1114,531
1115,541
1116,532
1117,518
1118,506
1119,504
1120,501
1121,490
1122,457
1123,447
1124,464
1125,496
1126,516
1127,512
1128,510
1129,497
1130,500
1131,502
1132,489
1133,477
1134,468
1135,461
1136,467
1137,462
1138,466
1139,485
1140,501
1141,503
1142,500
1143,513
1144,529
1145,544
1146,547
1147,540
1148,550
1149,562
1150,562
1151,558
1152,538
1153,531
1154,537
1155,547
1156,545
1157,527
1158,514
1159,512
1160,514
1161,505
1162,508
1163,521
1164,533
1165,531
1166,528
1167,529
1168,530
1169,558
1170,579
1171,594
1172,600
1173,612
1174,615
1175,595
1176,576
1177,560
1178,542
1179,518
1180,499
1181,484
1182,461
1183,455
1184,469
1185,481
1186,491
1187,504
1188,522
1189,539
1190,524
1191,496
1192,471
1193,474
1194,484
1195,496
1196,505
1197,504
1198,521
1199,535
1200,534
1201,528
1202,516
1203,518
1204,515
1205,518
1206,509
1207,483
1208,480
1209,496
1210,520
1211,525
1212,512
1213,508
1214,508
1215,513
1216,516
1217,505
1218,505
1219,503
1220,500
1221,489
1222,459
1223,446
1224,433
1225,418
1226,404
1227,396
1228,411
1229,427
1230,442
1231,464
1232,483
1233,508
1234,541
1235,563
1236,576
1237,582
1238,584
1239,563
1240,553
1241,559
1242,563
1243,576
1244,582
1245,578
1246,591
1247,580
1248,576
1249,568
1250,544
1251,518
1252,487
1253,470
1254,476
1255,484
1256,490
1257,481
1258,483
1259,496
1260,508
1261,507
1262,499
1263,481
1264,471
1265,446
1266,428
1267,415
1268,425
1269,441
1270,450
1271,463
1272,475
1273,500
1274,519
1275,520
1276,512
1277,499
1278,507
1279,509
1280,503
1281,487
1282,468
1283,470
1284,483
1285,496
1286,507
1287,508
1288,526
1289,539
1290,544
1291,550
1292,525
1293,512
1294,515
1295,514
1296,516
1297,511
1298,513
1299,513
1300,503
1301,495
1302,476
1303,468
1304,463
1305,473
1306,476
1307,467
1308,459
1309,465
1310,484
1311,498
1312,497
1313,514
1314,542
1315,564
1316,572
1317,561
1318,559
1319,564
1320,563
1321,555
1322,525
1323,505
1324,505
1325,517
1326,507
1327,462
1328,444
1329,444
1330,451
1331,457
1332,438
1333,431
1334,446
1335,474
1336,492
1337,504
1338,513
1339,535
1340,564
1341,576
1342,559
1343,553
1344,541
1345,519
1346,503
1347,490
1348,492
1349,493
1350,480
1351,469
1352,462
1353,471
1354,479
1355,490
1356,504
1357,510
1358,533
1359,544
1360,531
1361,529
1362,529
1363,533
1364,542
1365,545
1366,543
1367,537
1368,547
1369,558
1370,548
1371,542
1372,531
1373,525
1374,524
1375,533
1376,527
1377,508
1378,507
1379,513
1380,519
1381,516
1382,500
1383,495
1384,487
1385,481
1386,473
1387,455
1388,445
1389,446
1390,448
1391,453
1392,443
1393,446
1394,466
1395,495
1396,509
1397,513
1398,524
1399,527
1400,536
1401,540
1402,538
1403,539
1404,543
1405,533
1406,520
1407,504
1408,497
1409,499
1410,510
1411,514
1412,515
1413,532
1414,545
1415,543
1416,534
1417,521
1418,522
1419,530
1420,534
1421,531
1422,530
1423,543
1424,560
1425,564
1426,563
1427,552
1428,560
1429,569
1430,563
1431,542
1432,532
1433,503
1434,501
1435,512
1436,515
1437,492
1438,483
1439,497
1440,517
1441,534
1442,530
1443,533
1444,539
1445,554
1446,556
1447,534
1448,525
1449,526
1450,516
1451,504
1452,482
1453,477
1454,482
1455,487
1456,487
1457,477
1458,482
1459,489
1460,482
1461,493
1462,495
1463,484
1464,483
1465,502
1466,517
1467,502
1468,498
1469,505
1470,513
1471,492
1472,453
1473,433
1474,429
1475,429
1476,424
1477,423
1478,434
1479,435
1480,442
1481,446
1482,444
1483,446
1484,433
1485,423
1486,418
1487,419
1488,423
1489,427
1490,435
1491,444
1492,446
1493,455
1494,456
1495,468
1496,468
1497,448
1498,444
1499,449
1500,459
1501,467
1502,478
1503,511
1504,532
1505,539
1506,542
1507,537
1508,535
1509,521
1510,536
1511,551
1512,548
1513,559
1514,565
1515,571
1516,564
1517,558
1518,563
1519,567
1520,548
1521,500
1522,457
1523,443
1524,449
1525,449
1526,448
1527,466
1528,492
1529,517
1530,523
1531,520
1532,504
1533,501
1534,512
1535,509
1536,496
1537,479
1538,498
1539,502
1540,485
1541,472
1542,462
1543,474
1544,484
1545,493
1546,498
1547,482
1548,476
1549,483
1550,481
1551,477
1552,476
1553,493
1554,508
1555,519
1556,532
1557,536
1558,559
1559,565
1560,579
1561,576
1562,551
1563,520
1564,507
1565,513
1566,519
1567,513
1568,509
1569,517
1570,527
1571,521
1572,505
1573,502
1574,503
1575,510
1576,501
1577,481
1578,483
1579,500
1580,531
1581,550
1582,549
1583,540
1584,539
1585,543
1586,527
1587,489
1588,450
1589,448
1590,464
1591,469
1592,477
1593,500
1594,524
1595,545
1596,558
1597,547
1598,533
1599,522
1600,520
1601,516
1602,494
1603,482
1604,479
1605,488
1606,497
1607,487
1608,504
1609,522
1610,524
1611,527
1612,535
1613,550
1614,553
1615,545
1616,533
1617,509
1618,498
1619,498
1620,519
1621,544
1622,538
1623,531
1624,526
1625,516
1626,508
1627,495
1628,502
1629,512
1630,518
1631,503
1632,485
1633,497
1634,527
1635,551
1636,558
1637,538
1638,529
1639,527
1640,523
1641,516
1642,499
1643,500
1644,510
1645,514
1646,535
1647,542
1648,552
1649,556
1650,550
1651,534
1652,510
1653,515
1654,535
1655,542
1656,539
1657,531
1658,530
1659,535
1660,547
1661,551
1662,554
1663,553
1664,563
1665,569
1666,570
1667,564
1668,580
1669,595
1670,599
1671,592
1672,590
1673,592
1674,591
1675,589
1676,588
1677,572
1678,575
1679,560
1680,563
1681,574
1682,569
1683,563
1684,551
1685,534
1686,527
1687,520
1688,535
1689,557
1690,572
1691,577
1692,561
1693,562
1694,560
1695,550
1696,544
1697,536
1698,533
1699,518
1700,506
1701,486
1702,459
1703,455
1704,457
1705,466
1706,477
1707,468
1708,467
1709,471
1710,478
1711,476
1712,480
1713,499
1714,520
1715,524
1716,520
1717,512
1718,513
1719,510
1720,508
1721,512
1722,491
1723,483
1724,482
1725,488
1726,490
1727,488
1728,496
1729,505
1730,513
1731,520
1732,521
1733,527
1734,536
1735,535
1736,510
1737,468
1738,433
1739,417
1740,418
1741,415
1742,395
1743,399
1744,403
1745,419
1746,431
1747,432
1748,441
1749,433
1750,444
1751,468
1752,475
1753,481
1754,478
1755,470
1756,458
1757,433
1758,433
1759,436
1760,437
1761,440
1762,435
1763,435
1764,444
1765,464
1766,477
1767,480
1768,483
1769,493
1770,501
1771,503
1772,502
1773,513
1774,527
1775,539
1776,551
1777,564
1778,583
1779,583
1780,572
1781,570
1782,564
1783,576
1784,605
1785,598
1786,583
1787,550
1788,533
1789,526
1790,528
1791,528
1792,509
1793,508
1794,511
1795,514
1796,508
1797,499
1798,508
1799,517
1800,531
1801,532
1802,512
1803,508
1804,513
1805,528
1806,527
1807,516
1808,516
1809,526
1810,539
1811,546
1812,525
1813,525
1814,535
1815,551
1816,566
1817,568
1818,552
1819,528
1820,514
1821,512
1822,513
1823,525
1824,553
1825,551
1826,547
1827,523
1828,509
1829,508
1830,518
1831,521
1832,518
1833,519
1834,524
1835,522
1836,519
1837,501
1838,500
1839,503
1840,505
1841,517
1842,513
1843,516
1844,516
1845,516
1846,521
1847,528
1848,554
1849,567
1850,573
1851,583
1852,565
1853,559
1854,542
1855,525
1856,509
1857,488
1858,492
1859,496
1860,492
1861,472
1862,461
1863,443
1864,449
1865,463
1866,475
1867,477
1868,487
1869,495
1870,496
1871,487
1872,478
1873,490
1874,498
1875,500
1876,498
1877,484
1878,502
1879,544
1880,570
1881,579
1882,568
1883,563
1884,558
1885,548
1886,539
1887,523
1888,519
1889,524
1890,520
1891,517
1892,513
1893,519
1894,517
1895,514
1896,503
1897,487
1898,487
1899,492
1900,497
1901,516
1902,519
1903,537
1904,529
1905,519
1906,499
1907,482
1908,491
1909,504
1910,511
1911,508
1912,492
1913,499
1914,512
1915,519
1916,521
1917,528
1918,523
1919,528
1920,527
1921,500
1922,475
1923,476
1924,473
1925,481
1926,483
1927,483
1928,512
1929,537
1930,553
1931,556
1932,549
1933,558
1934,562
1935,575
1936,570
1937,549
1938,532
1939,534
1940,538
1941,520
1942,497
1943,483
1944,475
1945,471
1946,462
1947,460
1948,461
1949,465
1950,476
1951,479
1952,472
1953,468
1954,480
1955,500
1956,508
1957,518
1958,515
1959,515
1960,514
1961,512
1962,505
1963,511
1964,512
1965,516
1966,527
1967,535
1968,543
1969,548
1970,545
1971,556
1972,560
1973,565
1974,572
1975,575
1976,575
1977,575
1978,586
1979,582
1980,562
1981,545
1982,548
1983,568
1984,588
1985,583
1986,571
1987,553
1988,557
1989,558
1990,551
1991,550
1992,550
1993,568
1994,588
1995,613
1996,633
1997,618
1998,601
1999,577
