timestamp,signal
0,485
1,506
2,502
3,504
4,502
5,508
6,503
7,474
8,440
9,427
10,417
11,426
12,428
13,432
14,455
15,459
16,478
17,486
18,480
19,477
20,486
21,496
22,477
23,448
24,441
25,468
26,483
27,481
28,466
29,463
30,483
31,496
32,508
33,503
34,507
35,502
36,505
37,492
38,456
39,435
40,439
41,467
42,481
43,480
44,471
45,472
46,482
47,490
48,508
49,509
50,526
51,548
52,545
53,519
54,507
55,506
56,521
57,527
58,521
59,518
60,508
61,495
62,488
63,481
64,485
65,492
66,500
67,523
68,528
69,543
70,560
71,567
72,573
73,571
74,575
75,584
76,573
77,564
78,550
79,557
80,571
81,588
82,590
83,577
84,576
85,572
86,568
87,559
88,544
89,542
90,547
91,556
92,561
93,553
94,558
95,571
96,580
97,582
98,576
99,571
100,571
101,563
102,555
103,543
104,543
105,545
106,540
107,542
108,542
109,554
110,559
111,551
112,542
113,537
114,537
115,537
116,544
117,551
118,536
119,541
120,550
121,555
122,545
123,531
124,531
125,536
126,541
127,537
128,518
129,510
130,507
131,504
132,484
133,451
134,445
135,445
136,453
137,466
138,465
139,480
140,508
141,531
142,533
143,522
144,521
145,516
146,507
147,495
148,479
149,486
150,496
151,497
152,493
153,488
154,498
155,512
156,526
157,523
158,504
159,492
160,491
161,504
162,495
163,485
164,477
165,460
166,454
167,447
168,437
169,438
170,443
171,453
172,447
173,440
174,440
175,443
176,455
177,457
178,448
179,443
180,447
181,455
182,462
183,470
184,477
185,480
186,491
187,496
188,481
189,470
190,456
191,448
192,430
193,413
194,400
195,415
196,434
197,450
198,460
199,485
200,509
201,529
202,543
203,545
204,560
205,563
206,548
207,522
208,496
209,510
210,519
211,542
212,542
213,531
214,516
215,499
216,488
217,473
218,472
219,473
220,490
221,515
222,523
223,522
224,515
225,502
226,492
227,478
228,460
229,462
230,468
231,470
232,474
233,476
234,496
235,517
236,531
237,539
238,533
239,537
240,547
241,555
242,551
243,536
244,550
245,567
246,577
247,577
248,558
249,554
250,565
251,569
252,566
253,561
254,575
255,589
256,596
257,592
258,574
259,569
260,566
261,563
262,568
263,564
264,554
265,554
266,549
267,552
268,545
269,534
270,514
271,503
272,489
273,460
274,440
275,423
276,408
277,396
278,387
279,388
280,386
281,397
282,386
283,364
284,360
285,375
286,406
287,434
288,452
289,480
290,497
291,525
292,519
293,497
294,500
295,517
296,532
297,526
298,505
299,500
300,502
301,512
302,505
303,510
304,536
305,563
306,571
307,570
308,565
309,580
310,596
311,616
312,615
313,604
314,600
315,607
316,620
317,591
318,544
319,519
320,496
321,477
322,478
323,470
324,481
325,510
326,536
327,552
328,553
329,575
330,596
331,606
332,609
333,592
334,581
335,567
336,550
337,533
338,500
339,470
340,467
341,486
342,503
343,499
344,502
345,507
346,516
347,502
348,480
349,468
350,479
351,496
352,508
353,509
354,519
355,519
356,508
357,505
358,499
359,512
360,535
361,559
362,567
363,557
364,562
365,571
366,571
367,570
368,551
369,539
370,529
371,532
372,519
373,499
374,496
375,493
376,484
377,475
378,460
379,457
380,471
381,481
382,486
383,482
384,491
385,505
386,527
387,548
388,552
389,547
390,537
391,527
392,515
393,499
394,492
395,489
396,493
397,500
398,497
399,489
400,495
401,513
402,530
403,523
404,523
405,511
406,505
407,515
408,518
409,512
410,513
411,505
412,511
413,516
414,543
415,563
416,569
417,561
418,549
419,548
420,555
421,565
422,543
423,524
424,524
425,535
426,526
427,527
428,524
429,526
430,523
431,518
432,502
433,484
434,477
435,473
436,491
437,480
438,458
439,456
440,479
441,508
442,513
443,484
444,451
445,416
446,413
447,425
448,432
449,445
450,442
451,453
452,442
453,433
454,436
455,446
456,461
457,474
458,475
459,473
460,481
461,491
462,495
463,498
464,512
465,534
466,553
467,556
468,539
469,532
470,526
471,507
472,486
473,452
474,439
475,444
476,458
477,467
478,448
479,441
480,456
481,473
482,489
483,499
484,520
485,536
486,541
487,531
488,505
489,502
490,503
491,504
492,510
493,514
494,535
495,554
496,560
497,563
498,564
499,575
500,585
501,590
502,607
503,600
504,600
505,591
506,565
507,548
508,528
509,507
510,492
511,499
512,504
513,492
514,489
515,499
516,514
517,524
518,515
519,512
520,505
521,508
522,507
523,492
524,490
525,497
526,499
527,499
528,496
529,501
530,501
531,497
532,492
533,451
534,447
535,455
536,468
537,473
538,471
539,494
540,537
541,539
542,543
543,515
544,495
545,491
546,488
547,484
548,468
549,478
550,491
551,503
552,511
553,510
554,517
555,523
556,522
557,499
558,466
559,465
560,484
561,504
562,517
563,522
564,541
565,543
566,544
567,544
568,544
569,539
570,529
571,527
572,528
573,538
574,558
575,567
576,569
577,567
578,526
579,495
580,482
581,496
582,496
583,497
584,514
585,535
586,549
587,556
588,550
589,556
590,560
591,562
592,551
593,524
594,504
595,494
596,488
597,482
598,481
599,494
600,515
601,534
602,531
603,518
604,529
605,538
606,529
607,504
608,489
609,504
610,511
611,515
612,514
613,507
614,518
615,523
616,528
617,532
618,536
619,550
620,547
621,519
622,492
623,476
624,468
625,468
626,463
627,455
628,439
629,436
630,446
631,466
632,488
633,494
634,502
635,518
636,559
637,555
638,559
639,575
640,583
641,585
642,566
643,525
644,506
645,497
646,504
647,504
648,491
649,487
650,485
651,492
652,487
653,447
654,399
655,367
656,368
657,389
658,391
659,394
660,406
661,431
662,453
663,459
664,490
665,526
666,543
667,546
668,521
669,498
670,483
671,477
672,452
673,434
674,449
675,489
676,512
677,533
678,531
679,536
680,542
681,536
682,530
683,517
684,531
685,552
686,575
687,589
688,580
689,571
690,557
691,541
692,526
693,494
694,479
695,472
696,469
697,465
698,462
699,479
700,491
701,487
702,495
703,524
704,542
705,545
706,535
707,519
708,495
709,495
710,512
711,525
712,532
713,534
714,545
715,558
716,556
717,567
718,564
719,557
720,556
721,547
722,537
723,525
724,524
725,521
726,518
727,500
728,479
729,483
730,499
731,504
732,516
733,518
734,522
735,536
736,540
737,534
738,519
739,517
740,526
741,529
742,527
743,515
744,516
745,522
746,523
747,520
748,507
749,498
750,502
751,511
752,517
753,523
754,531
755,532
756,537
757,542
758,525
759,515
760,513
761,515
762,528
763,525
764,519
765,519
766,512
767,500
768,497
769,518
770,543
771,532
772,510
773,492
774,492
775,501
776,489
777,491
778,495
779,503
780,516
781,524
782,529
783,520
784,527
785,536
786,539
787,534
788,525
789,516
790,506
791,499
792,494
793,499
794,497
795,495
796,497
797,507
798,515
799,540
800,556
801,561
802,549
803,521
804,510
805,503
806,504
807,478
808,469
809,475
810,487
811,499
812,500
813,493
814,503
815,514
816,511
817,508
818,504
819,523
820,527
821,543
822,553
823,531
824,518
825,512
826,510
827,508
828,513
829,525
830,519
831,504
832,497
833,497
834,507
835,511
836,506
837,503
838,501
839,496
840,492
841,483
842,472
843,474
844,479
845,483
846,482
847,482
848,490
849,513
850,534
851,555
852,578
853,555
854,535
855,515
856,496
857,475
858,459
859,467
860,485
861,498
862,513
863,508
864,516
865,531
866,551
867,562
868,547
869,554
870,575
871,578
872,557
873,530
874,528
875,529
876,518
877,507
878,499
879,513
880,524
881,525
882,516
883,507
884,504
885,522
886,529
887,533
888,527
889,524
890,527
891,527
892,519
893,492
894,479
895,476
896,474
897,465
898,444
899,428
900,431
901,449
902,459
903,478
904,491
905,503
906,515
907,511
908,491
909,478
910,483
911,485
912,483
913,457
914,451
915,463
916,479
917,492
918,500
919,502
920,498
921,500
922,499
923,494
924,510
925,525
926,536
927,544
928,527
929,536
930,544
931,554
932,555
933,533
934,528
935,523
936,515
937,507
938,487
939,487
940,485
941,480
942,480
943,467
944,481
945,496
946,506
947,505
948,494
949,498
950,514
951,540
952,549
953,534
954,524
955,540
956,564
957,576
958,547
959,540
960,545
961,535
962,519
963,493
964,487
965,455
966,442
967,446
968,455
969,457
970,436
971,429
972,419
973,411
974,424
975,450
976,474
977,469
978,464
979,480
980,495
981,503
982,509
983,498
984,495
985,503
986,506
987,506
988,494
989,488
990,470
991,449
992,442
993,439
994,456
995,465
996,483
997,494
998,480
999,480
1000,505
1001,530
1002,535
1003,522
1004,527
1005,535
1006,531
1007,529
1008,510
1009,502
1010,491
1011,486
1012,490
1013,487
1014,500
1015,518
1016,535
1017,540
1018,521
1019,520
1020,526
1021,514
1022,493
1023,475
1024,475
1025,487
1026,497
1027,480
1028,460
1029,458
1030,464
1031,475
1032,487
1033,496
1034,517
1035,518
1036,505
1037,489
1038,469
1039,471
1040,483
1041,491
1042,485
1043,486
1044,498
1045,500
1046,496
1047,483
1048,463
1049,461
1050,471
1051,481
1052,483
1053,462
1054,453
1055,441
1056,446
1057,447
1058,441
1059,451
1060,484
1061,524
1062,540
1063,547
1064,563
1065,586
1066,593
1067,601
1068,588
1069,582
1070,576
1071,568
1072,561
1073,547
1074,540
1075,542
1076,543
1077,538
1078,511
1079,512
1080,525
1081,534
1082,545
1083,542
1084,544
1085,555
1086,556
1087,545
1088,531
1089,520
1090,500
1091,489
1092,481
1093,464
1094,471
1095,483
1096,499
1097,510
1098,518
1099,536
1100,561
1101,568
1102,564
1103,567
1104,574
1105,575
1106,571
1107,570
1108,562
1109,553
1110,558
1111,554
1112,552
1113,531
1114,521
1115,515
1116,507
1117,491
1118,471
1119,472
1120,477
1121,493
1122,518
1123,527
1124,534
1125,544
1126,550
1127,551
1128,549
1129,556
1130,558
1131,557
1132,556
1133,536
1134,532
1135,526
1136,519
1137,508
1138,495
1139,493
1140,503
1141,500
1142,496
1143,487
1144,495
1145,515
1146,545
1147,561
1148,561
1149,561
1150,542
1151,521
1152,515
1153,496
1154,492
1155,493
1156,500
1157,499
1158,497
1159,506
1160,524
1161,531
1162,527
1163,504
1164,498
1165,501
1166,503
1167,496
1168,477
1169,468
1170,466
1171,468
1172,475
1173,481
1174,496
1175,519
1176,537
1177,558
1178,586
1179,616
1180,627
1181,625
1182,613
1183,604
1184,608
1185,603
1186,574
1187,544
1188,521
1189,522
1190,520
1191,519
1192,508
1193,483
1194,471
1195,474
1196,492
1197,513
1198,524
1199,535
1200,542
1201,546
1202,546
1203,536
1204,536
1205,543
1206,542
1207,528
1208,501
1209,493
1210,496
1211,486
1212,477
1213,472
1214,492
1215,512
1216,519
1217,519
1218,497
1219,504
1220,518
1221,512
1222,509
1223,511
1224,526
1225,536
1226,531
1227,520
1228,504
1229,514
1230,510
1231,502
1232,496
1233,486
1234,499
1235,512
1236,529
1237,547
1238,545
1239,546
1240,556
1241,555
1242,566
1243,574
1244,590
1245,603
1246,614
1247,620
1248,617
1249,591
1250,564
1251,539
1252,522
1253,515
1254,518
1255,508
1256,508
1257,510
1258,496
1259,484
1260,483
1261,484
1262,492
1263,485
1264,493
1265,508
1266,513
1267,513
1268,494
1269,491
1270,495
1271,486
1272,485
1273,488
1274,501
1275,506
1276,496
1277,508
1278,490
1279,499
1280,507
1281,518
1282,510
1283,477
1284,470
1285,474
1286,470
1287,463
1288,461
1289,476
1290,501
1291,498
1292,502
1293,492
1294,501
1295,495
1296,489
1297,483
1298,454
1299,439
1300,441
1301,447
1302,438
1303,423
1304,433
1305,458
1306,470
1307,471
1308,471
1309,486
1310,494
1311,496
1312,506
1313,497
1314,492
1315,488
1316,497
1317,515
1318,525
1319,556
1320,564
1321,556
1322,529
1323,501
1324,484
1325,465
1326,454
1327,439
1328,433
1329,435
1330,444
1331,456
1332,474
1333,472
1334,482
1335,485
1336,491
1337,487
1338,463
1339,444
1340,419
1341,398
1342,391
1343,395
1344,418
1345,438
1346,455
1347,466
1348,467
1349,478
1350,486
1351,494
1352,485
1353,460
1354,444
1355,438
1356,447
1357,449
1358,455
1359,463
1360,472
1361,496
1362,507
1363,517
1364,496
1365,487
1366,499
1367,491
1368,477
1369,485
1370,490
1371,493
1372,500
1373,499
1374,513
1375,512
1376,515
1377,527
1378,527
1379,542
1380,556
1381,555
1382,550
1383,534
1384,543
1385,579
1386,581
1387,569
1388,537
1389,518
1390,503
1391,504
1392,514
1393,510
1394,511
1395,526
1396,537
1397,547
1398,544
1399,549
1400,555
1401,563
1402,545
1403,523
1404,517
1405,524
1406,532
1407,523
1408,497
1409,490
1410,494
1411,500
1412,476
1413,442
1414,445
1415,459
1416,481
1417,475
1418,460
1419,480
1420,498
1421,495
1422,477
1423,470
1424,472
1425,484
1426,492
1427,492
1428,492
1429,510
1430,508
1431,505
1432,506
1433,505
1434,531
1435,532
1436,534
1437,542
1438,542
1439,548
1440,564
1441,580
1442,588
1443,575
1444,568
1445,573
1446,579
1447,572
1448,558
1449,553
1450,558
1451,554
1452,551
1453,540
1454,537
1455,537
1456,533
1457,519
1458,504
1459,516
1460,529
1461,525
1462,520
1463,516
1464,525
1465,516
1466,487
1467,471
1468,459
1469,472
1470,496
1471,515
1472,526
1473,516
1474,517
1475,515
1476,506
1477,512
1478,503
1479,511
1480,516
1481,524
1482,522
1483,494
1484,487
1485,496
1486,512
1487,522
1488,519
1489,520
1490,520
1491,525
1492,516
1493,501
1494,500
1495,492
1496,478
1497,448
1498,427
1499,422
1500,423
1501,439
1502,451
1503,469
1504,486
1505,482
1506,490
1507,489
1508,479
1509,483
1510,481
1511,488
1512,502
1513,504
1514,510
1515,529
1516,545
1517,537
1518,516
1519,503
1520,485
1521,470
1522,471
1523,459
1524,468
1525,486
1526,487
1527,487
1528,478
1529,484
1530,493
1531,495
1532,481
1533,473
1534,478
1535,479
1536,468
1537,458
1538,458
1539,448
1540,457
1541,460
1542,460
1543,453
1544,456
1545,471
1546,489
1547,503
1548,498
1549,509
1550,535
1551,555
1552,563
1553,563
1554,558
1555,555
1556,561
1557,585
1558,602
1559,615
1560,616
1561,600
1562,583
1563,557
1564,540
1565,533
1566,532
1567,534
1568,547
1569,561
1570,571
1571,575
1572,572
1573,547
1574,547
1575,553
1576,553
1577,546
1578,527
1579,527
1580,529
1581,519
1582,509
1583,499
1584,514
1585,519
1586,519
1587,510
1588,494
1589,495
1590,503
1591,511
1592,502
1593,494
1594,499
1595,500
1596,503
1597,483
1598,459
1599,439
1600,425
1601,435
1602,435
1603,431
1604,447
1605,461
1606,474
1607,481
1608,470
1609,478
1610,484
1611,476
1612,456
1613,441
1614,456
1615,479
1616,490
1617,489
1618,480
1619,487
1620,498
1621,505
1622,510
1623,516
1624,532
1625,553
1626,567
1627,574
1628,582
1629,586
1630,583
1631,573
1632,571
1633,536
1634,530
1635,529
1636,536
1637,536
1638,535
1639,531
1640,510
1641,503
1642,481
1643,465
1644,472
1645,485
1646,504
1647,510
1648,499
1649,502
1650,512
1651,506
1652,509
1653,519
1654,531
1655,533
1656,543
1657,546
1658,529
1659,525
1660,530
1661,535
1662,536
1663,522
1664,528
1665,552
1666,565
1667,566
1668,556
1669,555
1670,569
1671,579
1672,579
1673,549
1674,544
1675,555
1676,561
1677,561
1678,553
1679,564
1680,580
1681,591
1682,598
1683,583
1684,568
1685,564
1686,575
1687,573
1688,569
1689,562
1690,550
1691,540
1692,540
1693,524
1694,520
1695,523
1696,536
1697,540
1698,534
1699,546
1700,550
1701,552
1702,553
1703,526
1704,515
1705,519
1706,527
1707,524
1708,510
1709,529
1710,543
1711,553
1712,552
1713,519
1714,499
1715,489
1716,473
1717,465
1718,460
1719,477
1720,492
1721,514
1722,530
1723,539
1724,536
1725,523
1726,527
1727,534
1728,540
1729,543
1730,531
1731,515
1732,516
1733,498
1734,501
1735,503
1736,502
1737,493
1738,486
1739,501
1740,512
1741,515
1742,532
1743,543
1744,555
1745,562
1746,565
1747,560
1748,538
1749,527
1750,523
1751,510
1752,492
1753,478
1754,476
1755,489
1756,503
1757,494
1758,457
1759,449
1760,445
1761,442
1762,449
1763,436
1764,447
1765,471
1766,489
1767,493
1768,476
1769,470
1770,468
1771,467
1772,480
1773,482
1774,502
1775,509
1776,504
1777,508
1778,517
1779,536
1780,545
1781,560
1782,574
1783,574
1784,572
1785,561
1786,539
1787,535
1788,530
1789,527
1790,523
1791,511
1792,490
1793,470
1794,476
1795,484
1796,484
1797,480
1798,459
1799,460
1800,472
1801,477
1802,483
1803,474
1804,477
1805,490
1806,502
1807,510
1808,515
1809,527
1810,544
1811,544
1812,537
1813,526
1814,529
1815,536
1816,512
1817,500
1818,494
1819,515
1820,539
1821,544
1822,525
1823,496
1824,489
1825,495
1826,507
1827,503
1828,494
1829,501
1830,500
1831,488
1832,488
1833,473
1834,472
1835,472
1836,473
1837,470
1838,453
1839,451
1840,448
1841,471
1842,494
1843,499
1844,514
1845,526
1846,529
1847,526
1848,518
1849,515
1850,516
1851,518
1852,534
1853,532
1854,534
1855,535
1856,537
1857,530
1858,507
1859,503
1860,499
1861,492
1862,493
1863,488
1864,498
1865,508
1866,522
1867,521
1868,506
1869,504
1870,500
1871,494
1872,496
1873,500
1874,519
1875,527
1876,537
1877,539
1878,522
1879,508
1880,495
1881,497
1882,511
1883,483
1884,472
1885,466
1886,469
1887,455
1888,435
1889,426
1890,433
1891,444
1892,462
1893,472
1894,468
1895,447
1896,448
1897,454
1898,442
1899,432
1900,418
1901,418
1902,421
1903,420
1904,435
1905,465
1906,493
1907,484
1908,474
1909,489
1910,511
1911,528
1912,538
1913,539
1914,559
1915,575
1916,586
1917,590
1918,571
1919,560
1920,537
1921,511
1922,486
1923,469
1924,472
1925,486
1926,497
1927,512
1928,519
1929,527
1930,535
1931,534
1932,527
1933,504
1934,484
1935,470
1936,457
1937,453
1938,447
1939,461
1940,483
1941,495
1942,492
1943,480
1944,490
1945,509
1946,531
1947,539
1948,528
1949,520
1950,511
1951,510
1952,513
1953,496
1954,486
1955,480
1956,486
1957,492
1958,478
1959,477
1960,484
1961,492
1962,492
1963,476
1964,485
1965,509
1966,539
1967,561
1968,565
1969,571
1970,577
1971,575
1972,575
1973,580
1974,595
1975,598
1976,585
1977,583
1978,591
1979,606
1980,610
1981,606
1982,587
1983,567
1984,559
1985,555
1986,547
1987,548
1988,527
1989,522
1990,538
1991,551
1992,553
1993,542
1994,541
1995,534
1996,523
1997,530
1998,528
1999,538
