timestamp,signal
0,495
1,482
2,477
3,480
4,486
5,495
6,509
7,510
8,516
9,519
10,515
11,528
12,533
13,552
14,559
15,559
16,567
17,563
18,560
19,559
20,548
21,538
22,533
23,546
24,528
25,515
26,520
27,534
28,546
29,551
30,546
31,543
32,549
33,567
34,575
35,576
36,573
37,556
38,521
39,475
40,446
41,447
42,443
43,454
44,464
45,456
46,443
47,438
48,443
49,432
50,440
51,452
52,463
53,475
54,480
55,475
56,468
57,459
58,467
59,487
60,503
61,516
62,527
63,534
64,550
65,558
66,552
67,530
68,531
69,541
70,543
71,553
72,548
73,538
74,534
75,531
76,536
77,545
78,531
79,547
80,546
81,545
82,532
83,524
84,526
85,524
86,521
87,518
88,535
89,546
90,547
91,545
92,540
93,533
94,518
95,512
96,518
97,508
98,502
99,499
100,498
101,492
102,465
103,452
104,444
105,437
106,429
107,417
108,438
109,472
110,494
111,484
112,473
113,474
114,484
115,500
116,494
117,472
118,463
119,469
120,478
121,474
122,465
123,468
124,477
125,483
126,503
127,512
128,523
129,525
130,520
131,504
132,492
133,485
134,469
135,471
136,461
137,457
138,459
139,463
140,472
141,455
142,430
143,428
144,444
145,460
146,459
147,458
148,463
149,492
150,505
151,528
152,540
153,551
154,558
155,555
156,546
157,528
158,532
159,531
160,526
161,509
162,492
163,484
164,483
165,479
166,487
167,486
168,475
169,482
170,494
171,484
172,482
173,499
174,501
175,511
176,521
177,523
178,526
179,527
180,536
181,531
182,526
183,521
184,499
185,489
186,480
187,464
188,460
189,462
190,470
191,484
192,496
193,504
194,503
195,501
196,487
197,467
198,473
199,504
200,528
201,529
202,499
203,488
204,497
205,521
206,521
207,525
208,533
209,539
210,529
211,526
212,517
213,517
214,527
215,542
216,551
217,519
218,492
219,484
220,502
221,506
222,507
223,510
224,521
225,534
226,541
227,552
228,566
229,579
230,583
231,564
232,524
233,516
234,520
235,510
236,503
237,491
238,487
239,497
240,509
241,519
242,521
243,522
244,528
245,528
246,525
247,520
248,527
249,534
250,543
251,544
252,535
253,544
254,542
255,549
256,551
257,543
258,540
259,534
260,533
261,524
262,512
263,516
264,528
265,529
266,538
267,540
268,544
269,537
270,534
271,532
272,526
273,507
274,497
275,499
276,507
277,516
278,523
279,515
280,515
281,512
282,519
283,532
284,538
285,543
286,540
287,531
288,534
289,553
290,548
291,549
292,533
293,511
294,502
295,508
296,520
297,531
298,547
299,566
300,579
301,570
302,542
303,523
304,516
305,522
306,514
307,497
308,483
309,489
310,492
311,503
312,515
313,532
314,536
315,523
316,517
317,517
318,530
319,527
320,526
321,536
322,526
323,521
324,523
325,534
326,542
327,538
328,541
329,543
330,542
331,529
332,496
333,478
334,486
335,495
336,490
337,467
338,457
339,461
340,465
341,473
342,480
343,487
344,506
345,519
346,524
347,522
348,538
349,565
350,575
351,562
352,545
353,525
354,509
355,513
356,521
357,523
358,527
359,536
360,539
361,528
362,517
363,513
364,505
365,493
366,481
367,480
368,494
369,516
370,529
371,505
372,467
373,449
374,444
375,445
376,456
377,463
378,472
379,467
380,461
381,457
382,462
383,484
384,499
385,516
386,519
387,514
388,527
389,539
390,547
391,531
392,529
393,531
394,526
395,522
396,517
397,510
398,510
399,517
400,518
401,521
402,499
403,490
404,488
405,485
406,461
407,435
408,435
409,441
410,455
411,464
412,472
413,501
414,524
415,543
416,548
417,547
418,551
419,558
420,555
421,529
422,497
423,488
424,486
425,494
426,489
427,480
428,483
429,495
430,518
431,534
432,539
433,537
434,525
435,520
436,515
437,505
438,504
439,496
440,496
441,499
442,487
443,486
444,501
445,525
446,538
447,536
448,537
449,539
450,543
451,536
452,516
453,510
454,499
455,488
456,485
457,481
458,487
459,487
460,502
461,510
462,521
463,531
464,531
465,532
466,530
467,526
468,536
469,545
470,545
471,524
472,497
473,483
474,481
475,481
476,470
477,457
478,467
479,494
480,517
481,537
482,548
483,553
484,564
485,560
486,562
487,559
488,571
489,579
490,578
491,583
492,588
493,585
494,579
495,569
496,562
497,554
498,552
499,543
500,529
501,508
502,475
503,463
504,464
505,467
506,475
507,480
508,496
509,501
510,509
511,505
512,480
513,466
514,459
515,459
516,459
517,468
518,477
519,483
520,481
521,476
522,457
523,455
524,473
525,473
526,459
527,450
528,463
529,466
530,468
531,472
532,480
533,496
534,533
535,546
536,566
537,571
538,579
539,586
540,581
541,569
542,559
543,565
544,569
545,570
546,543
547,512
548,499
549,503
550,499
551,490
552,487
553,492
554,500
555,517
556,519
557,505
558,489
559,484
560,498
561,505
562,504
563,510
564,514
565,514
566,507
567,496
568,508
569,509
570,510
571,500
572,486
573,495
574,505
575,499
576,486
577,472
578,479
579,494
580,519
581,526
582,526
583,545
584,569
585,584
586,588
587,569
588,568
589,570
590,566
591,559
592,547
593,549
594,559
595,574
596,574
597,547
598,535
599,532
600,542
601,549
602,532
603,519
604,513
605,499
606,488
607,485
608,478
609,472
610,482
611,493
612,496
613,500
614,495
615,491
616,494
617,467
618,459
619,456
620,455
621,448
622,432
623,430
624,420
625,424
626,434
627,454
628,475
629,482
630,480
631,478
632,484
633,504
634,511
635,515
636,507
637,495
638,483
639,479
640,495
641,497
642,494
643,492
644,499
645,516
646,518
647,521
648,533
649,547
650,552
651,566
652,571
653,560
654,536
655,516
656,503
657,487
658,497
659,504
660,487
661,473
662,468
663,479
664,476
665,480
666,487
667,471
668,470
669,495
670,511
671,511
672,493
673,489
674,486
675,491
676,497
677,503
678,512
679,508
680,498
681,488
682,469
683,471
684,480
685,489
686,488
687,471
688,472
689,483
690,496
691,504
692,499
693,505
694,509
695,507
696,495
697,483
698,477
699,486
700,511
701,523
702,518
703,508
704,502
705,517
706,512
707,491
708,482
709,480
710,494
711,511
712,523
713,515
714,509
715,504
716,503
717,496
718,492
719,487
720,483
721,486
722,490
723,505
724,526
725,537
726,538
727,515
728,518
729,541
730,548
731,528
732,509
733,513
734,527
735,542
736,549
737,531
738,520
739,514
740,508
741,504
742,488
743,492
744,505
745,524
746,535
747,534
748,544
749,554
750,544
751,529
752,526
753,539
754,551
755,568
756,579
757,563
758,558
759,555
760,544
761,541
762,548
763,560
764,535
765,512
766,490
767,469
768,458
769,460
770,480
771,473
772,444
773,429
774,429
775,441
776,461
777,472
778,495
779,521
780,541
781,558
782,560
783,566
784,548
785,552
786,547
787,539
788,526
789,516
790,521
791,528
792,533
793,543
794,556
795,562
796,560
797,537
798,525
799,507
800,499
801,509
802,490
803,503
804,519
805,536
806,541
807,536
808,535
809,529
810,528
811,525
812,516
813,525
814,529
815,529
816,525
817,519
818,528
819,533
820,540
821,547
822,547
823,549
824,548
825,536
826,509
827,489
828,473
829,473
830,481
831,477
832,473
833,482
834,495
835,508
836,503
837,486
838,467
839,454
840,453
841,443
842,432
843,452
844,482
845,508
846,534
847,528
848,524
849,523
850,531
851,546
852,542
853,538
854,526
855,508
856,486
857,477
858,491
859,532
860,551
861,553
862,531
863,528
864,530
865,529
866,530
867,511
868,503
869,500
870,497
871,496
872,492
873,504
874,514
875,520
876,509
877,499
878,496
879,483
880,481
881,473
882,463
883,476
884,495
885,501
886,500
887,496
888,505
889,508
890,505
891,504
892,497
893,504
894,520
895,528
896,543
897,546
898,554
899,571
900,574
901,561
902,552
903,552
904,562
905,568
906,571
907,564
908,545
909,532
910,512
911,487
912,455
913,456
914,471
915,483
916,490
917,490
918,502
919,509
920,524
921,527
922,507
923,498
924,502
925,506
926,516
927,529
928,536
929,552
930,553
931,545
932,530
933,530
934,540
935,548
936,543
937,530
938,527
939,514
940,515
941,510
942,496
943,487
944,475
945,462
946,451
947,444
948,454
949,471
950,497
951,502
952,502
953,517
954,534
955,538
956,530
957,511
958,502
959,499
960,510
961,523
962,504
963,500
964,507
965,510
966,500
967,487
968,483
969,480
970,476
971,477
972,478
973,498
974,519
975,530
976,526
977,508
978,500
979,499
980,509
981,515
982,499
983,484
984,473
985,480
986,476
987,470
988,473
989,481
990,492
991,487
992,479
993,472
994,475
995,485
996,486
997,472
998,459
999,453
1000,467
1001,455
1002,435
1003,457
1004,487
1005,493
1006,483
1007,463
1008,465
1009,476
1010,494
1011,512
1012,518
1013,523
1014,536
1015,533
1016,529
1017,515
1018,514
1019,517
1020,534
1021,549
1022,551
1023,556
1024,558
1025,546
1026,544
1027,546
1028,542
1029,535
1030,527
1031,505
1032,481
1033,478
1034,493
1035,504
1036,502
1037,489
1038,489
1039,492
1040,490
1041,480
1042,456
1043,449
1044,449
1045,464
1046,476
1047,488
1048,515
1049,543
1050,561
1051,567
1052,545
1053,533
1054,526
1055,534
1056,524
1057,503
1058,495
1059,501
1060,520
1061,548
1062,565
1063,573
1064,586
1065,595
1066,591
1067,582
1068,564
1069,555
1070,555
1071,542
1072,536
1073,530
1074,534
1075,519
1076,508
1077,504
1078,513
1079,515
1080,512
1081,500
1082,481
1083,480
1084,484
1085,477
1086,482
1087,487
1088,487
1089,491
1090,496
1091,506
1092,515
1093,536
1094,560
1095,576
1096,574
1097,541
1098,513
1099,495
1100,494
1101,492
1102,482
1103,495
1104,513
1105,521
1106,519
1107,515
1108,515
1109,520
1110,516
1111,496
1112,470
1113,471
1114,473
1115,481
1116,495
1117,492
1118,485
1119,485
1120,481
1121,475
1122,454
1123,449
1124,462
1125,480
1126,475
1127,468
1128,474
1129,470
1130,477
1131,473
1132,452
1133,438
1134,441
1135,458
1136,453
1137,443
1138,444
1139,464
1140,489
1141,507
1142,497
1143,487
1144,489
1145,486
1146,470
1147,463
1148,477
1149,488
1150,492
1151,508
1152,531
1153,548
1154,554
1155,548
1156,545
1157,535
1158,528
1159,526
1160,530
1161,531
1162,533
1163,540
1164,542
1165,537
1166,511
1167,477
1168,461
1169,462
1170,451
1171,448
1172,451
1173,472
1174,487
1175,482
1176,476
1177,470
1178,484
1179,497
1180,485
1181,496
1182,501
1183,514
1184,527
1185,544
1186,536
1187,515
1188,528
1189,547
1190,551
1191,538
1192,535
1193,524
1194,537
1195,559
1196,558
1197,555
1198,567
1199,572
1200,577
1201,573
1202,551
1203,536
1204,539
1205,548
1206,550
1207,550
1208,552
1209,556
1210,554
1211,536
1212,515
1213,482
1214,468
1215,481
1216,487
1217,488
1218,490
1219,487
1220,481
1221,480
1222,482
1223,490
1224,483
1225,473
1226,456
1227,450
1228,463
1229,480
1230,494
1231,487
1232,474
1233,484
1234,501
1235,515
1236,532
1237,528
1238,538
1239,548
1240,557
1241,558
1242,545
1243,536
1244,533
1245,543
1246,551
1247,535
1248,529
1249,540
1250,557
1251,557
1252,535
1253,522
1254,519
1255,518
1256,516
1257,496
1258,486
1259,489
1260,504
1261,514
1262,502
1263,505
1264,505
1265,507
1266,509
1267,503
1268,497
1269,505
1270,520
1271,524
1272,511
1273,503
1274,504
1275,497
1276,488
1277,481
1278,499
1279,510
1280,500
1281,496
1282,490
1283,516
1284,540
1285,540
1286,533
1287,519
1288,511
1289,510
1290,504
1291,493
1292,474
1293,472
1294,470
1295,457
1296,440
1297,414
1298,413
1299,434
1300,440
1301,436
1302,433
1303,438
1304,456
1305,461
1306,464
1307,464
1308,479
1309,491
1310,492
1311,485
1312,482
1313,493
1314,510
1315,510
1316,488
1317,474
1318,475
1319,481
1320,479
1321,464
1322,451
1323,456
1324,476
1325,511
1326,529
1327,536
1328,551
1329,557
1330,557
1331,549
1332,533
1333,537
1334,549
1335,557
1336,549
1337,524
1338,519
1339,513
1340,493
1341,474
1342,461
1343,469
1344,467
1345,451
1346,437
1347,438
1348,451
1349,465
1350,472
1351,467
1352,459
1353,459
1354,459
1355,458
1356,464
1357,466
1358,478
1359,497
1360,525
1361,553
1362,578
1363,591
1364,589
1365,573
1366,563
1367,560
1368,553
1369,550
1370,539
1371,537
1372,544
1373,557
1374,572
1375,563
1376,547
1377,530
1378,527
1379,534
1380,549
1381,568
1382,580
1383,594
1384,608
1385,611
1386,614
1387,597
1388,567
1389,555
1390,552
1391,554
1392,556
1393,565
1394,563
1395,552
1396,541
1397,536
1398,536
1399,540
1400,545
1401,563
1402,561
1403,556
1404,536
1405,516
1406,511
1407,497
1408,489
1409,487
1410,472
1411,467
1412,470
1413,482
1414,501
1415,510
1416,507
1417,486
1418,476
1419,481
1420,503
1421,514
1422,505
1423,503
1424,503
1425,507
1426,510
1427,494
1428,494
1429,507
1430,513
1431,486
1432,477
1433,489
1434,498
1435,509
1436,515
1437,519
1438,540
1439,567
1440,576
1441,596
1442,580
1443,583
1444,587
1445,590
1446,580
1447,556
1448,555
1449,560
1450,565
1451,560
1452,536
1453,524
1454,493
1455,472
1456,469
1457,469
1458,487
1459,516
1460,543
1461,544
1462,539
1463,539
1464,555
1465,568
1466,552
1467,512
1468,478
1469,470
1470,482
1471,484
1472,479
1473,485
1474,499
1475,522
1476,531
1477,517
1478,507
1479,500
1480,494
1481,483
1482,474
1483,480
1484,483
1485,479
1486,487
1487,494
1488,519
1489,545
1490,559
1491,560
1492,564
1493,571
1494,575
1495,569
1496,572
1497,568
1498,570
1499,568
1500,566
1501,548
1502,528
1503,531
1504,533
1505,532
1506,524
1507,499
1508,493
1509,484
1510,482
1511,478
1512,473
1513,480
1514,491
1515,503
1516,518
1517,510
1518,519
1519,523
1520,529
1521,521
1522,500
1523,497
1524,510
1525,524
1526,518
1527,506
1528,503
1529,494
1530,485
1531,474
1532,463
1533,474
1534,482
1535,486
1536,480
1537,463
1538,459
1539,465
1540,472
1541,457
1542,443
1543,445
1544,459
1545,476
1546,494
1547,504
1548,523
1549,550
1550,562
1551,551
1552,532
1553,518
1554,506
1555,499
1556,493
1557,480
1558,482
1559,488
1560,515
1561,510
1562,495
1563,487
1564,492
1565,512
1566,520
1567,521
1568,529
1569,531
1570,532
1571,532
1572,527
1573,516
1574,507
1575,517
1576,523
1577,526
1578,514
1579,508
1580,492
1581,484
1582,478
1583,479
1584,468
1585,468
1586,484
1587,471
1588,471
1589,475
1590,469
1591,463
1592,445
1593,432
1594,446
1595,449
1596,454
1597,446
1598,447
1599,456
1600,479
1601,499
1602,503
1603,514
1604,534
1605,546
1606,547
1607,533
1608,527
1609,511
1610,510
1611,509
1612,495
1613,493
1614,494
1615,491
1616,489
1617,494
1618,512
1619,537
1620,561
1621,556
1622,544
1623,539
1624,538
1625,529
1626,524
1627,514
1628,515
1629,515
1630,521
1631,515
1632,497
1633,487
1634,488
1635,492
1636,494
1637,473
1638,472
1639,467
1640,470
1641,471
1642,469
1643,484
1644,515
1645,555
1646,555
1647,560
1648,557
1649,560
1650,563
1651,563
1652,557
1653,562
1654,562
1655,558
1656,555
1657,549
1658,542
1659,534
1660,543
1661,559
1662,563
1663,575
1664,580
1665,578
1666,564
1667,534
1668,525
1669,525
1670,515
1671,512
1672,524
1673,543
1674,555
1675,557
1676,572
1677,597
1678,610
1679,615
1680,610
1681,602
1682,592
1683,603
1684,619
1685,617
1686,586
1687,559
1688,547
1689,549
1690,543
1691,532
1692,517
1693,527
1694,535
1695,529
1696,513
1697,491
1698,485
1699,496
1700,511
1701,510
1702,498
1703,494
1704,480
1705,463
1706,445
1707,437
1708,440
1709,449
1710,448
1711,445
1712,440
1713,445
1714,457
1715,471
1716,479
1717,490
1718,523
1719,536
1720,529
1721,514
1722,508
1723,512
1724,512
1725,512
1726,512
1727,508
1728,518
1729,527
1730,528
1731,519
1732,522
1733,537
1734,532
1735,527
1736,513
1737,487
1738,472
1739,473
1740,474
1741,477
1742,467
1743,452
1744,445
1745,427
1746,428
1747,445
1748,466
1749,487
1750,505
1751,522
1752,526
1753,519
1754,502
1755,494
1756,488
1757,483
1758,494
1759,512
1760,526
1761,537
1762,537
1763,515
1764,507
1765,499
1766,506
1767,516
1768,527
1769,536
1770,538
1771,543
1772,515
1773,497
1774,463
1775,451
1776,475
1777,491
1778,505
1779,512
1780,512
1781,510
1782,509
1783,524
1784,521
1785,536
1786,548
1787,551
1788,556
1789,560
1790,563
1791,546
1792,504
1793,475
1794,463
1795,467
1796,471
1797,476
1798,472
1799,477
1800,483
1801,478
1802,477
1803,484
1804,489
1805,491
1806,491
1807,480
1808,466
1809,449
1810,444
1811,457
1812,467
1813,479
1814,492
1815,499
1816,501
1817,496
1818,511
1819,529
1820,543
1821,546
1822,530
1823,504
1824,479
1825,456
1826,427
1827,399
1828,371
1829,362
1830,364
1831,372
1832,381
1833,389
1834,418
1835,442
1836,455
1837,465
1838,483
1839,509
1840,533
1841,538
1842,519
1843,505
1844,492
1845,467
1846,454
1847,459
1848,478
1849,491
1850,484
1851,483
1852,478
1853,483
1854,506
1855,516
1856,488
1857,460
1858,455
1859,462
1860,467
1861,465
1862,455
1863,464
1864,473
1865,477
1866,472
1867,470
1868,481
1869,486
1870,485
1871,475
1872,465
1873,476
1874,496
1875,506
1876,507
1877,504
1878,509
1879,523
1880,536
1881,550
1882,550
1883,558
1884,563
1885,556
1886,536
1887,514
1888,517
1889,530
1890,547
1891,554
1892,540
1893,535
1894,531
1895,541
1896,544
1897,540
1898,545
1899,558
1900,565
1901,572
1902,573
1903,568
1904,561
1905,551
1906,549
1907,557
1908,574
1909,597
1910,606
1911,622
1912,631
1913,631
1914,630
1915,619
1916,590
1917,559
1918,541
1919,533
1920,539
1921,534
1922,525
1923,537
1924,544
1925,549
1926,537
1927,522
1928,524
1929,533
1930,535
1931,539
1932,535
1933,527
1934,511
1935,483
1936,448
1937,419
1938,421
1939,435
1940,447
1941,458
1942,459
1943,470
1944,491
1945,511
1946,515
1947,505
1948,518
1949,501
1950,508
1951,514
1952,505
1953,510
1954,518
1955,516
1956,506
1957,487
1958,495
1959,481
1960,492
1961,486
1962,466
1963,459
1964,463
1965,480
1966,504
1967,519
1968,542
1969,550
1970,548
1971,537
1972,518
1973,494
1974,467
1975,468
1976,467
1977,450
1978,449
1979,440
1980,443
1981,439
1982,436
1983,450
1984,477
1985,493
1986,486
1987,475
1988,474
1989,478
1990,487
1991,486
1992,475
1993,475
1994,472
1995,478
1996,475
1997,471
1998,474
1999,474
