timestamp,signal
0,487
1,489
2,484
3,482
4,454
5,434
6,422
7,437
8,459
9,467
10,460
11,440
12,424
13,424
14,435
15,446
16,446
17,458
18,478
19,487
20,496
21,521
22,537
23,556
24,553
25,534
26,506
27,500
28,504
29,489
30,455
31,420
32,411
33,412
34,423
35,429
36,436
37,456
38,464
39,465
40,469
41,461
42,456
43,447
44,441
45,428
46,419
47,431
48,448
49,470
50,485
51,484
52,500
53,514
54,503
55,477
56,451
57,451
58,446
59,452
60,453
61,451
62,452
63,453
64,452
65,458
66,460
67,471
68,483
69,496
70,516
71,532
72,548
73,543
74,525
75,505
76,482
77,479
78,486
79,497
80,522
81,545
82,567
83,583
84,584
85,575
86,566
87,574
88,573
89,581
90,563
91,554
92,543
93,531
94,526
95,536
96,559
97,589
98,585
99,576
100,544
101,506
102,497
103,504
104,521
105,531
106,528
107,521
108,515
109,515
110,514
111,512
112,517
113,515
114,505
115,507
116,507
117,506
118,503
119,507
120,508
121,497
122,504
123,519
124,520
125,504
126,474
127,453
128,460
129,452
130,459
131,463
132,468
133,478
134,488
135,500
136,512
137,508
138,515
139,524
140,526
141,522
142,520
143,513
144,507
145,493
146,486
147,496
148,509
149,519
150,529
151,540
152,549
153,550
154,549
155,535
156,520
157,505
158,500
159,495
160,488
161,496
162,502
163,506
164,513
165,514
166,507
167,500
168,501
169,503
170,501
171,499
172,497
173,503
174,515
175,504
176,494
177,492
178,507
179,520
180,516
181,507
182,504
183,501
184,503
185,502
186,497
187,482
188,468
189,471
190,457
191,445
192,448
193,451
194,464
195,475
196,482
197,486
198,486
199,490
200,480
201,475
202,486
203,495
204,503
205,494
206,480
207,467
208,457
209,453
210,464
211,481
212,492
213,494
214,496
215,491
216,482
217,481
218,496
219,511
220,502
221,495
222,502
223,494
224,479
225,483
226,492
227,501
228,520
229,532
230,525
231,513
232,513
233,530
234,548
235,563
236,564
237,559
238,543
239,535
240,536
241,527
242,526
243,516
244,484
245,468
246,484
247,504
248,524
249,542
250,538
251,519
252,507
253,508
254,513
255,516
256,510
257,510
258,512
259,519
260,509
261,503
262,513
263,520
264,532
265,543
266,532
267,518
268,505
269,480
270,472
271,462
272,480
273,497
274,511
275,512
276,495
277,485
278,476
279,462
280,447
281,444
282,465
283,472
284,490
285,497
286,484
287,468
288,462
289,466
290,478
291,480
292,490
293,514
294,541
295,539
296,531
297,526
298,524
299,530
300,534
301,533
302,531
303,524
304,510
305,486
306,472
307,472
308,480
309,494
310,481
311,463
312,458
313,476
314,504
315,510
316,502
317,513
318,530
319,542
320,546
321,540
322,547
323,559
324,568
325,572
326,542
327,518
328,513
329,513
330,521
331,519
332,524
333,536
334,541
335,539
336,537
337,540
338,540
339,529
340,516
341,511
342,519
343,527
344,530
345,529
346,530
347,548
348,566
349,580
350,570
351,549
352,542
353,511
354,483
355,450
356,431
357,422
358,427
359,448
360,472
361,501
362,537
363,542
364,535
365,509
366,491
367,488
368,495
369,500
370,482
371,462
372,455
373,467
374,486
375,489
376,474
377,464
378,474
379,485
380,503
381,516
382,529
383,536
384,535
385,534
386,529
387,537
388,550
389,556
390,555
391,542
392,534
393,533
394,543
395,546
396,543
397,548
398,538
399,541
400,545
401,539
402,543
403,548
404,551
405,556
406,536
407,517
408,517
409,510
410,501
411,488
412,483
413,482
414,485
415,502
416,524
417,540
418,552
419,551
420,554
421,551
422,551
423,549
424,540
425,521
426,507
427,513
428,531
429,540
430,535
431,522
432,528
433,536
434,538
435,520
436,488
437,486
438,492
439,491
440,483
441,474
442,482
443,500
444,504
445,494
446,481
447,477
448,472
449,471
450,476
451,467
452,473
453,487
454,509
455,525
456,525
457,523
458,528
459,542
460,529
461,512
462,493
463,483
464,480
465,472
466,460
467,459
468,458
469,454
470,435
471,427
472,438
473,466
474,498
475,513
476,504
477,507
478,499
479,475
480,447
481,429
482,428
483,440
484,428
485,427
486,430
487,444
488,454
489,470
490,476
491,474
492,464
493,455
494,444
495,441
496,449
497,468
498,484
499,516
500,535
501,538
502,536
503,519
504,506
505,492
506,475
507,475
508,477
509,486
510,491
511,492
512,505
513,521
514,531
515,526
516,508
517,498
518,488
519,474
520,448
521,429
522,438
523,454
524,462
525,454
526,461
527,480
528,491
529,497
530,485
531,465
532,465
533,469
534,487
535,489
536,474
537,457
538,467
539,482
540,474
541,464
542,470
543,483
544,489
545,476
546,478
547,499
548,517
549,539
550,561
551,574
552,587
553,590
554,584
555,566
556,543
557,531
558,531
559,536
560,517
561,494
562,492
563,497
564,509
565,529
566,548
567,562
568,571
569,573
570,568
571,561
572,563
573,569
574,570
575,586
576,604
577,619
578,622
579,625
580,636
581,644
582,641
583,633
584,607
585,587
586,578
587,588
588,595
589,601
590,604
591,604
592,599
593,590
594,578
595,563
596,560
597,572
598,575
599,572
600,579
601,588
602,595
603,587
604,568
605,536
606,506
607,497
608,516
609,536
610,518
611,515
612,524
613,533
614,537
615,548
616,560
617,569
618,582
619,590
620,587
621,585
622,587
623,585
624,574
625,557
626,533
627,517
628,519
629,537
630,537
631,526
632,518
633,508
634,505
635,497
636,485
637,483
638,489
639,496
640,486
641,472
642,468
643,456
644,444
645,428
646,423
647,429
648,449
649,474
650,486
651,492
652,512
653,537
654,554
655,541
656,517
657,508
658,512
659,508
660,504
661,505
662,515
663,526
664,534
665,521
666,514
667,512
668,515
669,521
670,520
671,494
672,481
673,489
674,504
675,510
676,497
677,500
678,511
679,512
680,505
681,497
682,505
683,521
684,541
685,552
686,547
687,539
688,540
689,537
690,533
691,521
692,508
693,511
694,502
695,489
696,491
697,504
698,525
699,536
700,534
701,520
702,522
703,526
704,524
705,520
706,512
707,515
708,532
709,535
710,524
711,510
712,507
713,515
714,518
715,512
716,503
717,481
718,453
719,424
720,404
721,403
722,407
723,415
724,427
725,429
726,415
727,414
728,426
729,433
730,428
731,412
732,415
733,444
734,468
735,484
736,492
737,507
738,516
739,517
740,497
741,467
742,452
743,444
744,452
745,469
746,487
747,507
748,521
749,516
750,501
751,482
752,486
753,483
754,502
755,519
756,519
757,524
758,528
759,532
760,526
761,518
762,508
763,500
764,507
765,514
766,513
767,510
768,509
769,516
770,512
771,499
772,501
773,503
774,512
775,509
776,519
777,534
778,550
779,549
780,546
781,533
782,527
783,515
784,490
785,464
786,455
787,463
788,479
789,495
790,509
791,522
792,542
793,553
794,543
795,542
796,546
797,541
798,531
799,525
800,529
801,535
802,538
803,544
804,543
805,543
806,545
807,551
808,556
809,556
810,563
811,556
812,549
813,553
814,555
815,577
816,590
817,593
818,578
819,566
820,552
821,524
822,512
823,503
824,490
825,475
826,474
827,474
828,492
829,504
830,504
831,485
832,481
833,484
834,483
835,471
836,455
837,452
838,453
839,449
840,448
841,438
842,436
843,447
844,460
845,461
846,461
847,461
848,466
849,477
850,471
851,455
852,458
853,480
854,511
855,526
856,513
857,512
858,531
859,527
860,525
861,526
862,538
863,537
864,520
865,490
866,470
867,468
868,473
869,491
870,501
871,489
872,484
873,476
874,480
875,492
876,493
877,500
878,502
879,507
880,506
881,507
882,513
883,519
884,525
885,525
886,509
887,494
888,481
889,478
890,472
891,459
892,463
893,476
894,493
895,509
896,504
897,504
898,512
899,532
900,536
901,530
902,529
903,525
904,516
905,489
906,473
907,468
908,470
909,487
910,481
911,472
912,479
913,496
914,505
915,486
916,453
917,436
918,436
919,460
920,481
921,480
922,485
923,498
924,503
925,510
926,507
927,522
928,535
929,536
930,528
931,530
932,544
933,548
934,543
935,514
936,487
937,477
938,480
939,503
940,518
941,522
942,514
943,509
944,507
945,485
946,461
947,456
948,468
949,484
950,487
951,476
952,478
953,496
954,515
955,498
956,492
957,504
958,515
959,519
960,516
961,527
962,544
963,555
964,572
965,576
966,570
967,583
968,576
969,552
970,538
971,535
972,544
973,551
974,561
975,552
976,533
977,514
978,496
979,485
980,463
981,444
982,438
983,443
984,460
985,472
986,478
987,480
988,486
989,502
990,487
991,469
992,462
993,470
994,491
995,504
996,500
997,494
998,489
999,492
1000,472
1001,463
1002,466
1003,471
1004,472
1005,488
1006,496
1007,480
1008,467
1009,470
1010,464
1011,440
1012,430
1013,435
1014,453
1015,472
1016,480
1017,499
1018,521
1019,532
1020,525
1021,503
1022,493
1023,496
1024,514
1025,526
1026,524
1027,530
1028,530
1029,530
1030,528
1031,498
1032,475
1033,469
1034,469
1035,456
1036,446
1037,458
1038,477
1039,494
1040,500
1041,499
1042,493
1043,495
1044,495
1045,483
1046,461
1047,463
1048,467
1049,460
1050,460
1051,456
1052,478
1053,484
1054,495
1055,504
1056,496
1057,493
1058,505
1059,513
1060,518
1061,525
1062,545
1063,558
1064,571
1065,590
1066,590
1067,589
1068,566
1069,540
1070,524
1071,519
1072,521
1073,518
1074,511
1075,516
1076,531
1077,541
1078,533
1079,526
1080,517
1081,498
1082,488
1083,489
1084,494
1085,488
1086,482
1087,492
1088,500
1089,507
1090,502
1091,488
1092,499
1093,516
1094,509
1095,486
1096,442
1097,432
1098,444
1099,457
1100,470
1101,481
1102,499
1103,510
1104,512
1105,508
1106,492
1107,480
1108,473
1109,480
1110,478
1111,466
1112,469
1113,483
1114,499
1115,510
1116,516
1117,515
1118,501
1119,488
1120,484
1121,482
1122,494
1123,511
1124,528
1125,531
1126,511
1127,497
1128,493
1129,504
1130,521
1131,539
1132,519
1133,487
1134,472
1135,454
1136,438
1137,439
1138,453
1139,471
1140,484
1141,489
1142,514
1143,547
1144,560
1145,562
1146,562
1147,565
1148,570
1149,555
1150,526
1151,498
1152,478
1153,472
1154,486
1155,493
1156,471
1157,467
1158,481
1159,499
1160,519
1161,528
1162,546
1163,571
1164,591
1165,595
1166,583
1167,582
1168,579
1169,582
1170,571
1171,544
1172,525
1173,522
1174,528
1175,522
1176,518
1177,526
1178,531
1179,532
1180,528
1181,523
1182,519
1183,514
1184,523
1185,527
1186,534
1187,544
1188,522
1189,502
1190,483
1191,470
1192,476
1193,493
1194,504
1195,489
1196,471
1197,461
1198,475
1199,495
1200,503
1201,510
1202,522
1203,526
1204,533
1205,540
1206,544
1207,550
1208,551
1209,560
1210,572
1211,570
1212,556
1213,551
1214,554
1215,557
1216,560
1217,556
1218,558
1219,559
1220,562
1221,552
1222,563
1223,587
1224,599
1225,604
1226,603
1227,601
1228,598
1229,593
1230,599
1231,611
1232,632
1233,652
1234,634
1235,609
1236,577
1237,545
1238,502
1239,466
1240,457
1241,460
1242,474
1243,498
1244,507
1245,516
1246,521
1247,530
1248,536
1249,524
1250,519
1251,511
1252,519
1253,535
1254,521
1255,505
1256,493
1257,496
1258,502
1259,498
1260,483
1261,452
1262,440
1263,445
1264,454
1265,445
1266,418
1267,407
1268,401
1269,401
1270,403
1271,415
1272,435
1273,470
1274,507
1275,537
1276,543
1277,545
1278,539
1279,528
1280,521
1281,513
1282,521
1283,539
1284,551
1285,549
1286,535
1287,540
1288,532
1289,523
1290,504
1291,465
1292,460
1293,469
1294,465
1295,467
1296,472
1297,496
1298,525
1299,550
1300,570
1301,572
1302,572
1303,574
1304,560
1305,547
1306,543
1307,544
1308,541
1309,531
1310,528
1311,536
1312,547
1313,555
1314,552
1315,531
1316,528
1317,531
1318,545
1319,547
1320,543
1321,536
1322,533
1323,536
1324,530
1325,514
1326,492
1327,489
1328,499
1329,519
1330,534
1331,530
1332,526
1333,527
1334,529
1335,516
1336,504
1337,506
1338,518
1339,536
1340,540
1341,528
1342,519
1343,516
1344,526
1345,507
1346,496
1347,496
1348,504
1349,504
1350,494
1351,478
1352,477
1353,480
1354,481
1355,477
1356,468
1357,483
1358,494
1359,493
1360,486
1361,462
1362,460
1363,468
1364,483
1365,478
1366,466
1367,475
1368,491
1369,486
1370,474
1371,455
1372,455
1373,472
1374,483
1375,485
1376,479
1377,486
1378,483
1379,491
1380,497
1381,491
1382,485
1383,486
1384,487
1385,485
1386,478
1387,481
1388,483
1389,501
1390,502
1391,496
1392,488
1393,480
1394,489
1395,475
1396,445
1397,422
1398,406
1399,415
1400,398
1401,384
1402,388
1403,390
1404,401
1405,428
1406,455
1407,494
1408,533
1409,560
1410,565
1411,556
1412,550
1413,552
1414,546
1415,536
1416,531
1417,536
1418,543
1419,540
1420,542
1421,539
1422,541
1423,536
1424,534
1425,515
1426,502
1427,503
1428,511
1429,523
1430,512
1431,504
1432,518
1433,536
1434,551
1435,557
1436,543
1437,524
1438,508
1439,497
1440,478
1441,464
1442,467
1443,473
1444,486
1445,483
1446,486
1447,505
1448,522
1449,523
1450,529
1451,539
1452,553
1453,568
1454,580
1455,577
1456,564
1457,566
1458,574
1459,570
1460,562
1461,552
1462,540
1463,545
1464,561
1465,562
1466,553
1467,540
1468,528
1469,525
1470,506
1471,492
1472,487
1473,481
1474,479
1475,464
1476,458
1477,479
1478,494
1479,499
1480,508
1481,484
1482,484
1483,502
1484,514
1485,509
1486,497
1487,501
1488,505
1489,518
1490,510
1491,503
1492,491
1493,494
1494,512
1495,520
1496,536
1497,545
1498,537
1499,522
1500,512
1501,480
1502,476
1503,468
1504,466
1505,463
1506,447
1507,447
1508,467
1509,494
1510,509
1511,518
1512,534
1513,555
1514,573
1515,568
1516,555
1517,560
1518,559
1519,563
1520,547
1521,520
1522,505
1523,502
1524,501
1525,497
1526,487
1527,484
1528,508
1529,522
1530,518
1531,505
1532,510
1533,526
1534,529
1535,527
1536,530
1537,535
1538,531
1539,523
1540,505
1541,477
1542,462
1543,456
1544,461
1545,453
1546,438
1547,436
1548,448
1549,473
1550,487
1551,477
1552,481
1553,488
1554,510
1555,537
1556,556
1557,560
1558,555
1559,546
1560,544
1561,551
1562,558
1563,565
1564,563
1565,554
1566,557
1567,564
1568,568
1569,567
1570,551
1571,513
1572,481
1573,466
1574,486
1575,497
1576,503
1577,499
1578,492
1579,495
1580,501
1581,507
1582,522
1583,532
1584,544
1585,548
1586,543
1587,550
1588,555
1589,548
1590,539
1591,522
1592,531
1593,536
1594,524
1595,496
1596,462
1597,460
1598,496
1599,522
1600,522
1601,505
1602,508
1603,496
1604,490
1605,477
1606,473
1607,493
1608,525
1609,543
1610,531
1611,502
1612,485
1613,486
1614,501
1615,510
1616,511
1617,529
1618,546
1619,545
1620,541
1621,543
1622,556
1623,557
1624,541
1625,533
1626,531
1627,535
1628,544
1629,538
1630,548
1631,556
1632,558
1633,556
1634,563
1635,555
1636,529
1637,510
1638,512
1639,524
1640,516
1641,508
1642,523
1643,533
1644,531
1645,515
1646,502
1647,504
1648,524
1649,541
1650,536
1651,510
1652,498
1653,499
1654,508
1655,512
1656,510
1657,526
1658,547
1659,562
1660,566
1661,548
1662,538
1663,534
1664,521
1665,486
1666,444
1667,429
1668,432
1669,444
1670,467
1671,478
1672,503
1673,548
1674,582
1675,590
1676,591
1677,601
1678,619
1679,619
1680,603
1681,583
1682,575
1683,572
1684,567
1685,556
1686,531
1687,513
1688,517
1689,543
1690,550
1691,536
1692,531
1693,537
1694,536
1695,524
1696,504
1697,494
1698,494
1699,499
1700,504
1701,497
1702,493
1703,488
1704,490
1705,492
1706,493
1707,508
1708,513
1709,511
1710,512
1711,515
1712,504
1713,504
1714,503
1715,506
1716,504
1717,507
1718,512
1719,514
1720,510
1721,493
1722,479
1723,478
1724,485
1725,486
1726,483
1727,493
1728,506
1729,500
1730,493
1731,470
1732,458
1733,463
1734,470
1735,469
1736,464
1737,467
1738,469
1739,479
1740,471
1741,451
1742,441
1743,439
1744,455
1745,478
1746,466
1747,463
1748,455
1749,456
1750,451
1751,448
1752,462
1753,471
1754,476
1755,469
1756,468
1757,469
1758,462
1759,457
1760,468
1761,486
1762,511
1763,543
1764,542
1765,550
1766,535
1767,496
1768,457
1769,424
1770,423
1771,435
1772,447
1773,468
1774,477
1775,478
1776,483
1777,504
1778,511
1779,517
1780,531
1781,554
1782,584
1783,607
1784,603
1785,589
1786,588
1787,600
1788,606
1789,598
1790,594
1791,591
1792,600
1793,608
1794,594
1795,592
1796,580
1797,579
1798,583
1799,577
1800,551
1801,525
1802,514
1803,513
1804,494
1805,494
1806,504
1807,519
1808,533
1809,541
1810,546
1811,552
1812,572
1813,577
1814,579
1815,571
1816,566
1817,578
1818,573
1819,551
1820,532
1821,516
1822,511
1823,502
1824,491
1825,477
1826,468
1827,456
1828,445
1829,454
1830,444
1831,454
1832,468
1833,472
1834,468
1835,470
1836,462
1837,468
1838,482
1839,483
1840,465
1841,443
1842,448
1843,467
1844,488
1845,509
1846,507
1847,509
1848,522
1849,549
1850,569
1851,569
1852,577
1853,582
1854,581
1855,569
1856,542
1857,524
1858,513
1859,499
1860,479
1861,473
1862,487
1863,498
1864,494
1865,494
1866,484
1867,490
1868,500
1869,515
1870,529
1871,538
1872,544
1873,550
1874,543
1875,540
1876,532
1877,528
1878,509
1879,480
1880,454
1881,461
1882,493
1883,527
1884,550
1885,549
1886,535
1887,537
1888,545
1889,555
1890,537
1891,518
1892,508
1893,502
1894,499
1895,502
1896,509
1897,519
1898,532
1899,543
1900,543
1901,533
1902,542
1903,541
1904,528
1905,514
1906,509
1907,501
1908,489
1909,479
1910,474
1911,464
1912,471
1913,481
1914,479
1915,480
1916,483
1917,494
1918,514
1919,528
1920,524
1921,495
1922,482
1923,493
1924,499
1925,518
1926,517
1927,510
1928,498
1929,487
1930,477
1931,468
1932,477
1933,494
1934,507
1935,503
1936,492
1937,485
1938,481
1939,478
1940,470
1941,450
1942,470
1943,489
1944,503
1945,497
1946,480
1947,497
1948,521
1949,536
1950,528
1951,505
1952,491
1953,489
1954,466
1955,430
1956,390
1957,386
1958,399
1959,407
1960,427
1961,430
1962,449
1963,479
1964,498
1965,504
1966,502
1967,514
1968,521
1969,516
1970,499
1971,473
1972,459
1973,460
1974,467
1975,478
1976,496
1977,515
1978,515
1979,503
1980,492
1981,486
1982,499
1983,519
1984,547
1985,561
1986,545
1987,545
1988,553
1989,553
1990,557
1991,540
1992,523
1993,514
1994,510
1995,486
1996,458
1997,459
1998,467
1999,484
