timestamp,signal
0,540
1,544
2,532
3,529
4,536
5,543
6,555
7,557
8,575
9,600
10,617
11,633
12,625
13,619
14,607
15,580
16,562
17,540
18,537
19,543
20,532
21,525
22,512
23,515
24,518
25,522
26,521
27,503
28,478
29,451
30,440
31,434
32,428
33,428
34,423
35,422
36,405
37,393
38,386
39,385
40,393
41,387
42,369
43,375
44,379
45,381
46,391
47,402
48,436
49,468
50,481
51,490
52,503
53,527
54,552
55,560
56,569
57,571
58,569
59,571
60,555
61,532
62,506
63,503
64,519
65,539
66,561
67,568
68,583
69,591
70,590
71,588
72,579
73,591
74,583
75,569
76,564
77,554
78,537
79,519
80,519
81,512
82,510
83,492
84,476
85,483
86,479
87,465
88,459
89,464
90,465
91,477
92,503
93,504
94,496
95,473
96,485
97,492
98,503
99,515
100,529
101,547
102,557
103,551
104,542
105,530
106,540
107,540
108,541
109,543
110,535
111,536
112,524
113,524
114,512
115,500
116,503
117,496
118,516
119,528
120,524
121,520
122,496
123,496
124,502
125,510
126,517
127,511
128,495
129,486
130,502
131,521
132,509
133,493
134,491
135,515
136,519
137,521
138,511
139,503
140,510
141,524
142,523
143,515
144,524
145,520
146,512
147,480
148,459
149,466
150,474
151,491
152,496
153,515
154,533
155,525
156,515
157,502
158,508
159,520
160,533
161,558
162,589
163,606
164,627
165,631
166,634
167,617
168,620
169,616
170,615
171,598
172,563
173,553
174,547
175,542
176,540
177,537
178,532
179,535
180,526
181,516
182,515
183,538
184,556
185,559
186,558
187,549
188,545
189,548
190,551
191,541
192,520
193,515
194,517
195,519
196,503
197,477
198,453
199,442
200,431
201,441
202,441
203,452
204,479
205,506
206,518
207,519
208,534
209,548
210,543
211,548
212,548
213,546
214,548
215,546
216,553
217,545
218,559
219,571
220,578
221,576
222,559
223,540
224,520
225,500
226,463
227,425
228,405
229,407
230,434
231,462
232,475
233,505
234,534
235,533
236,516
237,492
238,487
239,491
240,502
241,528
242,529
243,534
244,537
245,538
246,541
247,533
248,544
249,562
250,570
251,578
252,561
253,552
254,539
255,532
256,535
257,517
258,511
259,515
260,518
261,514
262,511
263,520
264,520
265,509
266,509
267,508
268,515
269,509
270,487
271,494
272,495
273,495
274,494
275,495
276,494
277,484
278,489
279,500
280,503
281,512
282,484
283,481
284,484
285,495
286,517
287,505
288,513
289,523
290,522
291,532
292,526
293,526
294,517
295,510
296,512
297,495
298,482
299,496
300,487
301,479
302,458
303,466
304,463
305,446
306,447
307,434
308,437
309,442
310,461
311,480
312,496
313,515
314,521
315,535
316,531
317,508
318,495
319,490
320,518
321,519
322,504
323,482
324,472
325,487
326,498
327,498
328,524
329,547
330,578
331,577
332,560
333,538
334,505
335,483
336,451
337,420
338,414
339,417
340,443
341,455
342,464
343,458
344,463
345,482
346,496
347,498
348,514
349,532
350,539
351,530
352,524
353,533
354,553
355,567
356,580
357,581
358,600
359,626
360,615
361,620
362,602
363,593
364,583
365,584
366,554
367,510
368,482
369,478
370,498
371,510
372,512
373,515
374,513
375,506
376,504
377,504
378,506
379,508
380,498
381,484
382,454
383,435
384,432
385,435
386,456
387,474
388,505
389,518
390,505
391,499
392,481
393,491
394,502
395,506
396,501
397,475
398,467
399,462
400,454
401,470
402,465
403,474
404,481
405,483
406,482
407,473
408,483
409,502
410,520
411,552
412,564
413,575
414,570
415,567
416,574
417,569
418,560
419,554
420,545
421,543
422,521
423,521
424,530
425,541
426,541
427,531
428,523
429,522
430,523
431,522
432,505
433,496
434,492
435,484
436,481
437,461
438,454
439,456
440,473
441,500
442,520
443,536
444,555
445,552
446,551
447,539
448,544
449,555
450,555
451,551
452,533
453,530
454,527
455,513
456,518
457,517
458,524
459,531
460,536
461,538
462,522
463,497
464,475
465,468
466,467
467,468
468,483
469,499
470,529
471,538
472,519
473,513
474,511
475,526
476,522
477,502
478,495
479,492
480,499
481,512
482,510
483,505
484,504
485,503
486,506
487,462
488,434
489,432
490,435
491,449
492,456
493,460
494,462
495,456
496,456
497,449
498,456
499,469
500,482
501,508
502,504
503,513
504,519
505,523
506,539
507,541
508,542
509,536
510,526
511,498
512,482
513,484
514,489
515,494
516,506
517,504
518,499
519,497
520,495
521,496
522,511
523,535
524,555
525,544
526,532
527,509
528,492
529,490
530,487
531,490
532,478
533,476
534,489
535,508
536,520
537,529
538,552
539,576
540,579
541,574
542,548
543,532
544,519
545,519
546,536
547,528
548,524
549,524
550,503
551,500
552,478
553,489
554,502
555,521
556,535
557,539
558,551
559,557
560,554
561,558
562,535
563,524
564,532
565,526
566,524
567,519
568,525
569,530
570,518
571,513
572,510
573,515
574,519
575,512
576,507
577,508
578,520
579,529
580,534
581,536
582,515
583,512
584,515
585,510
586,509
587,492
588,476
589,464
590,454
591,456
592,454
593,481
594,486
595,487
596,495
597,506
598,529
599,537
600,513
601,500
602,487
603,495
604,474
605,465
606,477
607,494
608,529
609,541
610,552
611,568
612,578
613,588
614,565
615,563
616,561
617,552
618,547
619,552
620,551
621,527
622,502
623,494
624,482
625,480
626,480
627,478
628,495
629,504
630,513
631,524
632,530
633,551
634,528
635,513
636,529
637,536
638,537
639,528
640,520
641,521
642,527
643,544
644,570
645,588
646,600
647,587
648,588
649,593
650,576
651,562
652,540
653,528
654,516
655,503
656,501
657,487
658,494
659,498
660,499
661,510
662,503
663,508
664,527
665,534
666,527
667,507
668,504
669,508
670,513
671,524
672,526
673,540
674,551
675,540
676,513
677,483
678,466
679,451
680,441
681,448
682,458
683,484
684,507
685,518
686,519
687,519
688,527
689,543
690,548
691,526
692,479
693,458
694,443
695,438
696,442
697,438
698,438
699,440
700,446
701,450
702,431
703,435
704,452
705,466
706,485
707,493
708,504
709,511
710,512
711,517
712,512
713,489
714,478
715,460
716,462
717,469
718,489
719,497
720,496
721,500
722,491
723,494
724,494
725,496
726,489
727,467
728,457
729,450
730,435
731,433
732,444
733,463
734,476
735,470
736,485
737,481
738,489
739,471
740,457
741,442
742,415
743,404
744,406
745,399
746,395
747,385
748,404
749,426
750,446
751,477
752,494
753,520
754,551
755,565
756,574
757,568
758,574
759,576
760,565
761,570
762,560
763,555
764,560
765,569
766,550
767,526
768,510
769,515
770,536
771,561
772,563
773,558
774,548
775,551
776,556
777,551
778,543
779,539
780,528
781,522
782,506
783,500
784,509
785,504
786,506
787,494
788,476
789,455
790,466
791,482
792,483
793,492
794,500
795,503
796,499
797,477
798,468
799,459
800,445
801,433
802,419
803,426
804,446
805,462
806,480
807,482
808,497
809,507
810,508
811,519
812,515
813,524
814,529
815,534
816,543
817,536
818,541
819,551
820,551
821,535
822,523
823,531
824,523
825,498
826,486
827,473
828,487
829,489
830,471
831,460
832,465
833,464
834,477
835,481
836,478
837,450
838,417
839,403
840,409
841,428
842,445
843,477
844,498
845,502
846,518
847,514
848,524
849,532
850,530
851,536
852,526
853,515
854,509
855,505
856,511
857,496
858,505
859,508
860,515
861,523
862,522
863,547
864,553
865,544
866,547
867,544
868,558
869,577
870,572
871,558
872,529
873,506
874,492
875,480
876,464
877,465
878,483
879,502
880,508
881,498
882,475
883,471
884,484
885,504
886,527
887,526
888,539
889,564
890,574
891,577
892,568
893,560
894,556
895,557
896,556
897,536
898,524
899,518
900,517
901,531
902,539
903,552
904,562
905,564
906,576
907,579
908,588
909,601
910,608
911,612
912,599
913,591
914,592
915,569
916,542
917,513
918,497
919,489
920,495
921,508
922,497
923,488
924,481
925,487
926,499
927,515
928,528
929,525
930,520
931,518
932,512
933,517
934,529
935,532
936,535
937,517
938,496
939,490
940,475
941,463
942,450
943,461
944,478
945,472
946,465
947,469
948,484
949,507
950,526
951,541
952,542
953,550
954,563
955,563
956,563
957,541
958,529
959,529
960,523
961,524
962,517
963,525
964,529
965,539
966,523
967,512
968,519
969,523
970,521
971,535
972,537
973,553
974,547
975,521
976,507
977,492
978,491
979,498
980,513
981,531
982,535
983,531
984,529
985,508
986,481
987,462
988,465
989,487
990,487
991,480
992,461
993,463
994,468
995,457
996,448
997,441
998,467
999,478
1000,476
1001,473
1002,468
1003,476
1004,491
1005,499
1006,504
1007,494
1008,499
1009,503
1010,523
1011,542
1012,545
1013,536
1014,540
1015,532
1016,531
1017,520
1018,521
1019,533
1020,523
1021,510
1022,491
1023,477
1024,460
1025,445
1026,442
1027,440
1028,444
1029,444
1030,439
1031,429
1032,413
1033,426
1034,443
1035,447
1036,456
1037,455
1038,469
1039,478
1040,475
1041,479
1042,480
1043,487
1044,501
1045,524
1046,541
1047,544
1048,555
1049,573
1050,577
1051,576
1052,565
1053,564
1054,542
1055,533
1056,533
1057,532
1058,545
1059,540
1060,527
1061,507
1062,472
1063,459
1064,461
1065,468
1066,486
1067,493
1068,497
1069,501
1070,502
1071,521
1072,525
1073,538
1074,553
1075,553
1076,541
1077,515
1078,506
1079,489
1080,487
1081,506
1082,509
1083,530
1084,528
1085,533
1086,536
1087,518
1088,517
1089,517
1090,523
1091,510
1092,488
1093,486
1094,497
1095,521
1096,519
1097,487
1098,454
1099,443
1100,448
1101,465
1102,478
1103,489
1104,471
1105,452
1106,437
1107,420
1108,421
1109,434
1110,447
1111,478
1112,496
1113,518
1114,531
1115,535
1116,548
1117,542
1118,547
1119,554
1120,540
1121,552
1122,557
1123,567
1124,568
1125,543
1126,521
1127,511
1128,525
1129,546
1130,558
1131,561
1132,554
1133,559
1134,555
1135,550
1136,524
1137,499
1138,490
1139,480
1140,476
1141,480
1142,455
1143,440
1144,432
1145,433
1146,455
1147,439
1148,428
1149,418
1150,399
1151,395
1152,389
1153,406
1154,433
1155,458
1156,489
1157,497
1158,510
1159,514
1160,515
1161,526
1162,529
1163,542
1164,565
1165,572
1166,577
1167,585
1168,590
1169,587
1170,575
1171,571
1172,564
1173,551
1174,546
1175,543
1176,513
1177,473
1178,455
1179,449
1180,453
1181,464
1182,470
1183,478
1184,492
1185,512
1186,512
1187,504
1188,492
1189,477
1190,480
1191,480
1192,479
1193,465
1194,438
1195,435
1196,450
1197,463
1198,469
1199,466
1200,465
1201,465
1202,456
1203,463
1204,476
1205,482
1206,495
1207,496
1208,502
1209,499
1210,488
1211,478
1212,481
1213,490
1214,505
1215,531
1216,540
1217,536
1218,541
1219,548
1220,548
1221,549
1222,535
1223,543
1224,556
1225,559
1226,571
1227,551
1228,553
1229,564
1230,555
1231,543
1232,519
1233,515
1234,520
1235,511
1236,507
1237,482
1238,472
1239,479
1240,491
1241,507
1242,512
1243,527
1244,536
1245,525
1246,513
1247,504
1248,518
1249,539
1250,522
1251,526
1252,521
1253,514
1254,530
1255,522
1256,528
1257,545
1258,563
1259,551
1260,522
1261,484
1262,444
1263,443
1264,445
1265,449
1266,464
1267,478
1268,492
1269,481
1270,466
1271,472
1272,475
1273,486
1274,498
1275,520
1276,537
1277,529
1278,533
1279,539
1280,553
1281,555
1282,537
1283,536
1284,551
1285,553
1286,544
1287,540
1288,537
1289,531
1290,537
1291,532
1292,520
1293,509
1294,509
1295,529
1296,541
1297,535
1298,525
1299,511
1300,513
1301,519
1302,512
1303,517
1304,509
1305,521
1306,520
1307,499
1308,496
1309,504
1310,507
1311,508
1312,487
1313,476
1314,482
1315,502
1316,530
1317,529
1318,524
1319,531
1320,540
1321,565
1322,578
1323,598
1324,610
1325,612
1326,610
1327,586
1328,584
1329,597
1330,598
1331,589
1332,567
1333,555
1334,547
1335,531
1336,527
1337,530
1338,541
1339,551
1340,541
1341,519
1342,504
1343,512
1344,524
1345,527
1346,532
1347,541
1348,552
1349,561
1350,560
1351,550
1352,535
1353,535
1354,520
1355,502
1356,502
1357,511
1358,523
1359,531
1360,551
1361,559
1362,549
1363,540
1364,534
1365,519
1366,507
1367,477
1368,470
1369,472
1370,462
1371,462
1372,462
1373,463
1374,471
1375,485
1376,496
1377,485
1378,486
1379,491
1380,491
1381,499
1382,496
1383,508
1384,520
1385,527
1386,540
1387,530
1388,527
1389,539
1390,556
1391,547
1392,519
1393,501
1394,496
1395,500
1396,489
1397,460
1398,439
1399,431
1400,432
1401,435
1402,424
1403,422
1404,427
1405,432
1406,440
1407,435
1408,446
1409,459
1410,471
1411,465
1412,456
1413,457
1414,441
1415,464
1416,487
1417,491
1418,505
1419,512
1420,503
1421,499
1422,482
1423,475
1424,473
1425,472
1426,504
1427,519
1428,542
1429,559
1430,563
1431,558
1432,537
1433,525
1434,531
1435,528
1436,534
1437,526
1438,527
1439,524
1440,528
1441,540
1442,533
1443,535
1444,551
1445,554
1446,559
1447,554
1448,554
1449,555
1450,557
1451,559
1452,556
1453,562
1454,554
1455,538
1456,536
1457,536
1458,542
1459,540
1460,547
1461,548
1462,529
1463,534
1464,549
1465,565
1466,583
1467,587
1468,589
1469,586
1470,587
1471,563
1472,537
1473,536
1474,531
1475,534
1476,526
1477,522
1478,516
1479,500
1480,500
1481,507
1482,496
1483,507
1484,517
1485,532
1486,538
1487,533
1488,528
1489,525
1490,543
1491,551
1492,548
1493,538
1494,527
1495,521
1496,515
1497,509
1498,505
1499,513
1500,524
1501,528
1502,523
1503,523
1504,514
1505,497
1506,472
1507,447
1508,449
1509,466
1510,477
1511,484
1512,486
1513,494
1514,496
1515,502
1516,524
1517,530
1518,530
1519,524
1520,517
1521,522
1522,514
1523,514
1524,513
1525,513
1526,522
1527,525
1528,542
1529,552
1530,546
1531,549
1532,531
1533,502
1534,487
1535,489
1536,497
1537,497
1538,504
1539,520
1540,524
1541,518
1542,504
1543,505
1544,508
1545,493
1546,492
1547,500
1548,514
1549,513
1550,499
1551,498
1552,497
1553,505
1554,493
1555,484
1556,504
1557,511
1558,511
1559,511
1560,517
1561,512
1562,482
1563,464
1564,463
1565,455
1566,449
1567,435
1568,446
1569,454
1570,451
1571,452
1572,437
1573,421
1574,409
1575,409
1576,419
1577,429
1578,451
1579,478
1580,489
1581,489
1582,464
1583,460
1584,456
1585,460
1586,460
1587,437
1588,435
1589,452
1590,464
1591,478
1592,492
1593,510
1594,504
1595,483
1596,482
1597,489
1598,498
1599,502
1600,483
1601,476
1602,476
1603,480
1604,463
1605,438
1606,410
1607,391
1608,409
1609,435
1610,451
1611,459
1612,460
1613,487
1614,524
1615,536
1616,534
1617,511
1618,491
1619,483
1620,496
1621,506
1622,498
1623,484
1624,467
1625,438
1626,419
1627,401
1628,410
1629,429
1630,426
1631,420
1632,412
1633,415
1634,416
1635,417
1636,440
1637,456
1638,489
1639,513
1640,510
1641,507
1642,505
1643,521
1644,533
1645,535
1646,543
1647,541
1648,563
1649,576
1650,578
1651,583
1652,574
1653,567
1654,562
1655,545
1656,527
1657,512
1658,514
1659,517
1660,510
1661,509
1662,503
1663,511
1664,510
1665,500
1666,488
1667,471
1668,469
1669,481
1670,499
1671,518
1672,531
1673,553
1674,584
1675,591
1676,593
1677,590
1678,605
1679,598
1680,583
1681,578
1682,565
1683,562
1684,552
1685,544
1686,538
1687,524
1688,531
1689,540
1690,539
1691,541
1692,537
1693,531
1694,524
1695,519
1696,515
1697,495
1698,478
1699,474
1700,498
1701,518
1702,512
1703,503
1704,506
1705,538
1706,566
1707,560
1708,556
1709,565
1710,563
1711,545
1712,527
1713,534
1714,547
1715,534
1716,528
1717,526
1718,534
1719,553
1720,578
1721,577
1722,556
1723,537
1724,530
1725,519
1726,516
1727,508
1728,523
1729,545
1730,570
1731,580
1732,569
1733,572
1734,569
1735,559
1736,569
1737,575
1738,571
1739,579
1740,567
1741,568
1742,563
1743,571
1744,573
1745,566
1746,560
1747,540
1748,524
1749,521
1750,512
1751,507
1752,498
1753,498
1754,492
1755,485
1756,485
1757,477
1758,492
1759,489
1760,475
1761,478
1762,483
1763,500
1764,511
1765,518
1766,531
1767,531
1768,532
1769,545
1770,565
1771,571
1772,543
1773,528
1774,495
1775,470
1776,461
1777,450
1778,453
1779,465
1780,472
1781,487
1782,490
1783,511
1784,526
1785,530
1786,521
1787,499
1788,487
1789,481
1790,500
1791,524
1792,531
1793,547
1794,550
1795,541
1796,540
1797,540
1798,538
1799,536
1800,514
1801,502
1802,487
1803,483
1804,476
1805,456
1806,451
1807,455
1808,476
1809,498
1810,516
1811,499
1812,454
1813,412
1814,394
1815,403
1816,413
1817,412
1818,420
1819,448
1820,473
1821,486
1822,485
1823,485
1824,492
1825,497
1826,496
1827,487
1828,489
1829,481
1830,483
1831,495
1832,499
1833,482
1834,469
1835,471
1836,459
1837,435
1838,421
1839,415
1840,431
1841,455
1842,453
1843,459
1844,477
1845,488
1846,497
1847,501
1848,524
1849,545
1850,548
1851,565
1852,559
1853,540
1854,550
1855,554
1856,548
1857,520
1858,509
1859,514
1860,530
1861,533
1862,526
1863,540
1864,514
1865,488
1866,476
1867,460
1868,446
1869,447
1870,449
1871,459
1872,470
1873,487
1874,500
1875,516
1876,541
1877,551
1878,567
1879,562
1880,553
1881,544
1882,530
1883,535
1884,546
1885,558
1886,575
1887,574
1888,586
1889,580
1890,553
1891,542
1892,522
1893,502
1894,493
1895,503
1896,527
1897,528
1898,516
1899,511
1900,522
1901,525
1902,525
1903,525
1904,523
1905,536
1906,535
1907,515
1908,498
1909,492
1910,481
1911,474
1912,455
1913,446
1914,451
1915,450
1916,454
1917,440
1918,446
1919,450
1920,443
1921,436
1922,424
1923,443
1924,473
1925,501
1926,530
1927,534
1928,558
1929,582
1930,584
1931,582
1932,572
1933,558
1934,536
1935,512
1936,514
1937,522
1938,527
1939,540
1940,552
1941,550
1942,534
1943,522
1944,511
1945,508
1946,496
1947,484
1948,486
1949,494
1950,512
1951,524
1952,529
1953,530
1954,531
1955,535
1956,533
1957,521
1958,515
1959,514
1960,510
1961,514
1962,503
1963,489
1964,482
1965,485
1966,505
1967,516
1968,543
1969,561
1970,561
1971,553
1972,540
1973,543
1974,548
1975,552
1976,555
1977,554
1978,560
1979,563
1980,554
1981,549
1982,544
1983,520
1984,515
1985,500
1986,482
1987,472
1988,473
1989,483
1990,500
1991,521
1992,536
1993,550
1994,557
1995,551
1996,537
1997,520
1998,503
1999,494
