timestamp,signal
0,480
1,478
2,472
3,486
4,511
5,515
6,524
7,518
8,510
9,509
10,517
11,511
12,499
13,503
14,512
15,515
16,516
17,504
18,511
19,521
20,529
21,532
22,519
23,507
24,498
25,492
26,468
27,435
28,431
29,438
30,457
31,472
32,482
33,493
34,495
35,497
36,504
37,511
38,524
39,527
40,527
41,550
42,553
43,574
44,584
45,586
46,579
47,564
48,559
49,559
50,551
51,547
52,536
53,521
54,514
55,512
56,509
57,497
58,501
59,507
60,519
61,517
62,489
63,480
64,486
65,489
66,487
67,479
68,487
69,495
70,510
71,509
72,488
73,483
74,498
75,489
76,486
77,476
78,481
79,503
80,527
81,533
82,535
83,551
84,567
85,576
86,591
87,572
88,565
89,563
90,569
91,573
92,562
93,555
94,540
95,535
96,525
97,509
98,510
99,510
100,505
101,505
102,494
103,494
104,505
105,524
106,536
107,534
108,527
109,527
110,529
111,548
112,561
113,566
114,559
115,535
116,516
117,505
118,518
119,540
120,556
121,553
122,521
123,512
124,535
125,558
126,563
127,556
128,557
129,564
130,564
131,536
132,509
133,504
134,515
135,532
136,537
137,530
138,528
139,528
140,513
141,507
142,492
143,481
144,476
145,480
146,469
147,441
148,440
149,466
150,494
151,498
152,498
153,504
154,508
155,505
156,473
157,450
158,452
159,471
160,488
161,477
162,463
163,456
164,450
165,457
166,461
167,454
168,447
169,457
170,479
171,487
172,488
173,491
174,494
175,493
176,488
177,493
178,512
179,530
180,536
181,522
182,505
183,503
184,497
185,490
186,490
187,494
188,507
189,517
190,516
191,516
192,504
193,500
194,504
195,519
196,529
197,529
198,534
199,539
200,558
201,563
202,547
203,535
204,531
205,529
206,533
207,531
208,537
209,548
210,557
211,542
212,512
213,507
214,490
215,478
216,468
217,454
218,463
219,470
220,475
221,467
222,456
223,463
224,481
225,508
226,531
227,536
228,545
229,555
230,554
231,543
232,535
233,539
234,539
235,525
236,503
237,481
238,491
239,505
240,504
241,502
242,492
243,487
244,480
245,491
246,500
247,502
248,510
249,519
250,528
251,532
252,528
253,536
254,521
255,529
256,527
257,512
258,508
259,510
260,519
261,518
262,500
263,498
264,499
265,499
266,504
267,496
268,510
269,536
270,555
271,563
272,552
273,547
274,541
275,538
276,545
277,539
278,539
279,542
280,558
281,574
282,568
283,557
284,555
285,552
286,539
287,521
288,519
289,527
290,536
291,520
292,499
293,488
294,476
295,472
296,468
297,463
298,464
299,473
300,484
301,498
302,499
303,502
304,497
305,500
306,499
307,499
308,504
309,503
310,510
311,497
312,476
313,459
314,446
315,450
316,454
317,439
318,434
319,454
320,467
321,473
322,470
323,467
324,471
325,487
326,489
327,480
328,496
329,514
330,526
331,530
332,512
333,508
334,519
335,527
336,530
337,539
338,553
339,553
340,555
341,548
342,513
343,480
344,480
345,482
346,473
347,454
348,455
349,471
350,490
351,502
352,501
353,516
354,533
355,527
356,501
357,484
358,493
359,510
360,525
361,527
362,524
363,503
364,478
365,454
366,416
367,395
368,403
369,418
370,438
371,441
372,436
373,443
374,441
375,433
376,422
377,417
378,433
379,454
380,484
381,511
382,517
383,519
384,524
385,533
386,521
387,497
388,473
389,461
390,473
391,477
392,478
393,496
394,500
395,501
396,484
397,458
398,455
399,454
400,463
401,463
402,460
403,471
404,494
405,520
406,542
407,551
408,548
409,551
410,558
411,575
412,569
413,566
414,562
415,568
416,566
417,551
418,534
419,519
420,526
421,529
422,530
423,531
424,526
425,514
426,499
427,472
428,467
429,476
430,483
431,470
432,458
433,468
434,492
435,509
436,505
437,495
438,512
439,535
440,555
441,560
442,552
443,545
444,560
445,543
446,545
447,551
448,554
449,548
450,544
451,531
452,500
453,478
454,459
455,447
456,433
457,409
458,419
459,442
460,469
461,504
462,514
463,518
464,527
465,545
466,551
467,535
468,540
469,564
470,568
471,566
472,563
473,564
474,565
475,558
476,542
477,523
478,509
479,492
480,482
481,471
482,466
483,483
484,511
485,532
486,553
487,557
488,556
489,554
490,558
491,569
492,570
493,562
494,544
495,532
496,518
497,514
498,525
499,526
500,518
501,521
502,524
503,534
504,543
505,543
506,536
507,519
508,516
509,510
510,509
511,504
512,490
513,501
514,515
515,519
516,520
517,506
518,509
519,516
520,521
521,532
522,535
523,543
524,551
525,558
526,559
527,552
528,549
529,556
530,562
531,569
532,553
533,545
534,542
535,534
536,525
537,522
538,528
539,532
540,534
541,534
542,526
543,529
544,533
545,536
546,539
547,540
548,539
549,548
550,564
551,551
552,546
553,551
554,544
555,535
556,530
557,510
558,497
559,498
560,513
561,527
562,526
563,528
564,534
565,525
566,498
567,473
568,464
569,459
570,467
571,465
572,450
573,437
574,451
575,465
576,467
577,486
578,496
579,518
580,526
581,520
582,496
583,493
584,497
585,493
586,486
587,488
588,499
589,516
590,526
591,529
592,526
593,536
594,543
595,545
596,549
597,551
598,554
599,559
600,553
601,532
602,505
603,495
604,499
605,504
606,497
607,491
608,497
609,491
610,486
611,479
612,465
613,469
614,475
615,482
616,510
617,541
618,546
619,549
620,543
621,555
622,575
623,593
624,593
625,582
626,565
627,557
628,553
629,539
630,527
631,528
632,512
633,520
634,523
635,524
636,512
637,495
638,488
639,476
640,470
641,455
642,449
643,453
644,455
645,463
646,449
647,423
648,421
649,429
650,448
651,443
652,429
653,438
654,460
655,473
656,471
657,451
658,451
659,474
660,496
661,512
662,511
663,503
664,502
665,509
666,508
667,489
668,486
669,479
670,478
671,476
672,472
673,470
674,478
675,493
676,483
677,454
678,447
679,454
680,451
681,441
682,437
683,440
684,433
685,431
686,437
687,446
688,470
689,509
690,529
691,532
692,540
693,552
694,551
695,552
696,551
697,547
698,546
699,551
700,563
701,556
702,546
703,546
704,549
705,547
706,518
707,473
708,458
709,456
710,470
711,481
712,490
713,507
714,523
715,537
716,542
717,534
718,536
719,539
720,525
721,505
722,495
723,492
724,491
725,491
726,483
727,487
728,503
729,519
730,530
731,532
732,515
733,508
734,502
735,510
736,515
737,506
738,510
739,522
740,518
741,512
742,509
743,507
744,504
745,502
746,502
747,481
748,466
749,463
750,464
751,469
752,477
753,497
754,520
755,534
756,539
757,522
758,509
759,501
760,499
761,488
762,478
763,472
764,476
765,484
766,495
767,505
768,518
769,530
770,544
771,542
772,523
773,506
774,504
775,493
776,493
777,486
778,495
779,497
780,502
781,494
782,483
783,490
784,508
785,535
786,547
787,550
788,566
789,583
790,596
791,600
792,573
793,556
794,554
795,558
796,557
797,542
798,538
799,536
800,536
801,527
802,504
803,493
804,497
805,505
806,509
807,505
808,518
809,531
810,537
811,531
812,521
813,524
814,529
815,546
816,548
817,551
818,563
819,574
820,579
821,572
822,557
823,534
824,512
825,497
826,471
827,447
828,440
829,449
830,461
831,460
832,464
833,483
834,494
835,500
836,503
837,490
838,497
839,514
840,519
841,513
842,510
843,529
844,552
845,551
846,542
847,506
848,511
849,529
850,553
851,546
852,523
853,516
854,523
855,524
856,515
857,492
858,488
859,497
860,513
861,516
862,493
863,481
864,478
865,473
866,465
867,438
868,433
869,443
870,459
871,475
872,501
873,531
874,561
875,584
876,581
877,571
878,560
879,535
880,526
881,525
882,518
883,516
884,505
885,511
886,520
887,512
888,514
889,506
890,503
891,495
892,480
893,482
894,491
895,498
896,484
897,464
898,469
899,470
900,473
901,459
902,441
903,445
904,456
905,475
906,478
907,473
908,481
909,485
910,489
911,481
912,468
913,465
914,470
915,473
916,474
917,457
918,460
919,478
920,494
921,501
922,500
923,508
924,514
925,510
926,498
927,483
928,486
929,498
930,512
931,509
932,490
933,482
934,472
935,465
936,461
937,455
938,456
939,470
940,488
941,489
942,486
943,486
944,488
945,487
946,470
947,457
948,465
949,480
950,494
951,495
952,500
953,504
954,521
955,536
956,528
957,509
958,513
959,527
960,531
961,530
962,521
963,529
964,527
965,506
966,493
967,485
968,488
969,497
970,514
971,510
972,496
973,489
974,481
975,476
976,480
977,490
978,492
979,471
980,454
981,442
982,456
983,485
984,518
985,536
986,539
987,524
988,525
989,539
990,567
991,574
992,565
993,560
994,574
995,579
996,580
997,573
998,572
999,576
1000,572
1001,569
1002,565
1003,560
1004,546
1005,532
1006,526
1007,506
1008,499
1009,495
1010,496
1011,493
1012,481
1013,493
1014,511
1015,525
1016,530
1017,508
1018,497
1019,508
1020,519
1021,515
1022,489
1023,489
1024,503
1025,519
1026,511
1027,487
1028,483
1029,493
1030,501
1031,506
1032,516
1033,531
1034,536
1035,547
1036,538
1037,521
1038,508
1039,496
1040,496
1041,479
1042,454
1043,447
1044,461
1045,483
1046,499
1047,515
1048,532
1049,544
1050,547
1051,563
1052,571
1053,579
1054,586
1055,576
1056,571
1057,540
1058,535
1059,535
1060,541
1061,530
1062,498
1063,475
1064,445
1065,433
1066,434
1067,432
1068,447
1069,462
1070,471
1071,488
1072,497
1073,513
1074,537
1075,551
1076,560
1077,566
1078,587
1079,617
1080,607
1081,592
1082,584
1083,594
1084,608
1085,605
1086,586
1087,567
1088,559
1089,544
1090,520
1091,519
1092,512
1093,517
1094,521
1095,534
1096,545
1097,544
1098,543
1099,539
1100,538
1101,525
1102,507
1103,518
1104,539
1105,549
1106,543
1107,524
1108,526
1109,540
1110,558
1111,560
1112,535
1113,519
1114,520
1115,523
1116,516
1117,500
1118,492
1119,473
1120,464
1121,439
1122,419
1123,419
1124,420
1125,428
1126,435
1127,435
1128,443
1129,451
1130,454
1131,469
1132,483
1133,500
1134,506
1135,513
1136,513
1137,494
1138,491
1139,516
1140,540
1141,539
1142,523
1143,504
1144,493
1145,487
1146,501
1147,501
1148,499
1149,506
1150,512
1151,511
1152,503
1153,509
1154,526
1155,535
1156,541
1157,524
1158,520
1159,519
1160,513
1161,518
1162,514
1163,528
1164,525
1165,537
1166,543
1167,543
1168,556
1169,568
1170,557
1171,544
1172,550
1173,566
1174,572
1175,554
1176,540
1177,541
1178,543
1179,542
1180,533
1181,511
1182,496
1183,499
1184,506
1185,502
1186,499
1187,491
1188,500
1189,516
1190,528
1191,534
1192,527
1193,527
1194,538
1195,556
1196,554
1197,558
1198,561
1199,556
1200,535
1201,510
1202,491
1203,488
1204,512
1205,524
1206,527
1207,513
1208,520
1209,543
1210,562
1211,562
1212,540
1213,524
1214,531
1215,547
1216,551
1217,543
1218,548
1219,559
1220,562
1221,558
1222,546
1223,539
1224,518
1225,498
1226,488
1227,488
1228,496
1229,497
1230,504
1231,497
1232,480
1233,470
1234,461
1235,463
1236,482
1237,492
1238,504
1239,512
1240,516
1241,526
1242,527
1243,538
1244,550
1245,548
1246,529
1247,482
1248,462
1249,473
1250,506
1251,537
1252,537
1253,530
1254,533
1255,528
1256,513
1257,498
1258,499
1259,498
1260,499
1261,502
1262,489
1263,483
1264,480
1265,493
1266,499
1267,495
1268,503
1269,513
1270,524
1271,525
1272,516
1273,517
1274,525
1275,534
1276,534
1277,527
1278,535
1279,547
1280,552
1281,537
1282,514
1283,508
1284,515
1285,520
1286,507
1287,491
1288,494
1289,501
1290,505
1291,499
1292,483
1293,480
1294,476
1295,481
1296,492
1297,492
1298,508
1299,521
1300,538
1301,547
1302,545
1303,550
1304,546
1305,536
1306,521
1307,497
1308,478
1309,468
1310,466
1311,479
1312,487
1313,488
1314,498
1315,513
1316,510
1317,491
1318,493
1319,499
1320,509
1321,518
1322,514
1323,518
1324,521
1325,511
1326,499
1327,486
1328,498
1329,511
1330,519
1331,518
1332,506
1333,497
1334,496
1335,494
1336,487
1337,460
1338,444
1339,449
1340,462
1341,471
1342,480
1343,496
1344,525
1345,547
1346,541
1347,509
1348,494
1349,494
1350,511
1351,517
1352,512
1353,521
1354,526
1355,517
1356,499
1357,475
1358,465
1359,464
1360,473
1361,501
1362,520
1363,544
1364,566
1365,577
1366,569
1367,536
1368,523
1369,514
1370,523
1371,527
1372,515
1373,521
1374,541
1375,554
1376,561
1377,556
1378,550
1379,531
1380,505
1381,480
1382,459
1383,469
1384,487
1385,502
1386,509
1387,493
1388,495
1389,485
1390,483
1391,488
1392,495
1393,503
1394,517
1395,536
1396,538
1397,531
1398,531
1399,533
1400,535
1401,503
1402,451
1403,414
1404,393
1405,398
1406,398
1407,408
1408,423
1409,444
1410,458
1411,443
1412,424
1413,433
1414,452
1415,478
1416,483
1417,477
1418,486
1419,509
1420,534
1421,552
1422,561
1423,559
1424,548
1425,550
1426,544
1427,536
1428,542
1429,559
1430,571
1431,555
1432,518
1433,506
1434,510
1435,521
1436,530
1437,531
1438,547
1439,566
1440,571
1441,557
1442,541
1443,539
1444,534
1445,532
1446,524
1447,492
1448,472
1449,487
1450,492
1451,481
1452,472
1453,471
1454,478
1455,484
1456,487
1457,469
1458,466
1459,472
1460,477
1461,479
1462,477
1463,480
1464,491
1465,485
1466,478
1467,470
1468,482
1469,504
1470,525
1471,529
1472,521
1473,526
1474,535
1475,547
1476,544
1477,521
1478,500
1479,484
1480,477
1481,465
1482,451
1483,449
1484,458
1485,474
1486,486
1487,488
1488,499
1489,518
1490,531
1491,525
1492,495
1493,468
1494,465
1495,479
1496,494
1497,492
1498,494
1499,492
1500,489
1501,492
1502,489
1503,498
1504,506
1505,512
1506,523
1507,529
1508,531
1509,526
1510,521
1511,525
1512,525
1513,525
1514,531
1515,532
1516,521
1517,499
1518,494
1519,496
1520,507
1521,512
1522,509
1523,527
1524,544
1525,554
1526,554
1527,536
1528,531
1529,522
1530,490
1531,459
1532,440
1533,438
1534,444
1535,464
1536,487
1537,508
1538,525
1539,534
1540,525
1541,535
1542,538
1543,539
1544,540
1545,535
1546,524
1547,525
1548,533
1549,532
1550,534
1551,550
1552,560
1553,560
1554,579
1555,570
1556,566
1557,544
1558,531
1559,518
1560,507
1561,516
1562,511
1563,498
1564,491
1565,493
1566,500
1567,503
1568,497
1569,512
1570,519
1571,522
1572,511
1573,511
1574,503
1575,494
1576,487
1577,469
1578,451
1579,446
1580,455
1581,470
1582,467
1583,478
1584,508
1585,502
1586,500
1587,479
1588,464
1589,454
1590,458
1591,449
1592,438
1593,450
1594,464
1595,468
1596,472
1597,463
1598,472
1599,482
1600,492
1601,513
1602,491
1603,496
1604,504
1605,502
1606,492
1607,462
1608,455
1609,456
1610,457
1611,466
1612,457
1613,464
1614,476
1615,483
1616,487
1617,478
1618,466
1619,480
1620,505
1621,522
1622,533
1623,541
1624,549
1625,538
1626,521
1627,498
1628,501
1629,518
1630,539
1631,539
1632,529
1633,521
1634,499
1635,489
1636,486
1637,490
1638,495
1639,511
1640,528
1641,529
1642,521
1643,522
1644,526
1645,524
1646,503
1647,495
1648,511
1649,538
1650,536
1651,532
1652,513
1653,500
1654,491
1655,492
1656,514
1657,532
1658,548
1659,561
1660,569
1661,564
1662,558
1663,547
1664,519
1665,509
1666,509
1667,500
1668,499
1669,505
1670,513
1671,490
1672,460
1673,454
1674,456
1675,461
1676,463
1677,452
1678,461
1679,477
1680,482
1681,478
1682,465
1683,457
1684,455
1685,455
1686,471
1687,491
1688,522
1689,545
1690,565
1691,577
1692,578
1693,582
1694,587
1695,588
1696,589
1697,561
1698,532
1699,518
1700,508
1701,508
1702,504
1703,515
1704,528
1705,541
1706,546
1707,515
1708,504
1709,511
1710,523
1711,525
1712,500
1713,494
1714,502
1715,516
1716,523
1717,512
1718,535
1719,527
1720,516
1721,502
1722,491
1723,486
1724,493
1725,512
1726,529
1727,526
1728,512
1729,509
1730,516
1731,496
1732,488
1733,484
1734,472
1735,478
1736,457
1737,429
1738,415
1739,416
1740,426
1741,419
1742,403
1743,402
1744,418
1745,435
1746,438
1747,435
1748,439
1749,448
1750,468
1751,482
1752,491
1753,499
1754,506
1755,513
1756,518
1757,509
1758,513
1759,516
1760,537
1761,557
1762,555
1763,550
1764,548
1765,543
1766,537
1767,525
1768,531
1769,542
1770,546
1771,541
1772,516
1773,513
1774,524
1775,536
1776,551
1777,545
1778,536
1779,537
1780,537
1781,521
1782,495
1783,483
1784,482
1785,495
1786,494
1787,476
1788,458
1789,440
1790,434
1791,439
1792,460
1793,480
1794,502
1795,516
1796,508
1797,491
1798,497
1799,513
1800,534
1801,535
1802,534
1803,536
1804,541
1805,543
1806,535
1807,523
1808,534
1809,553
1810,554
1811,564
1812,568
1813,579
1814,577
1815,569
1816,551
1817,524
1818,519
1819,523
1820,527
1821,531
1822,506
1823,502
1824,520
1825,535
1826,557
1827,568
1828,575
1829,579
1830,574
1831,553
1832,528
1833,518
1834,517
1835,510
1836,516
1837,519
1838,537
1839,551
1840,559
1841,556
1842,552
1843,557
1844,563
1845,540
1846,519
1847,500
1848,501
1849,512
1850,521
1851,516
1852,493
1853,485
1854,489
1855,491
1856,506
1857,515
1858,528
1859,547
1860,557
1861,563
1862,555
1863,558
1864,568
1865,569
1866,556
1867,525
1868,520
1869,541
1870,562
1871,557
1872,532
1873,518
1874,519
1875,520
1876,515
1877,499
1878,505
1879,512
1880,522
1881,514
1882,499
1883,508
1884,523
1885,530
1886,527
1887,516
1888,524
1889,528
1890,527
1891,531
1892,516
1893,514
1894,527
1895,540
1896,534
1897,508
1898,503
1899,503
1900,512
1901,511
1902,505
1903,503
1904,499
1905,506
1906,500
1907,488
1908,498
1909,513
1910,530
1911,529
1912,524
1913,525
1914,529
1915,529
1916,521
1917,499
1918,485
1919,496
1920,522
1921,531
1922,521
1923,521
1924,538
1925,547
1926,554
1927,552
1928,566
1929,560
1930,541
1931,527
1932,521
1933,521
1934,532
1935,536
1936,534
1937,535
1938,551
1939,551
1940,531
1941,523
1942,512
1943,509
1944,505
1945,503
1946,504
1947,503
1948,512
1949,533
1950,555
1951,565
1952,553
1953,548
1954,534
1955,518
1956,492
1957,466
1958,464
1959,472
1960,481
1961,483
1962,460
1963,448
1964,452
1965,452
1966,440
1967,425
1968,436
1969,451
1970,469
1971,481
1972,473
1973,478
1974,489
1975,504
1976,508
1977,495
1978,483
1979,481
1980,469
1981,460
1982,448
1983,455
1984,464
1985,445
1986,427
1987,422
1988,439
1989,461
1990,485
1991,511
1992,529
1993,516
1994,510
1995,507
1996,513
1997,518
1998,530
1999,542
