timestamp,signal
0,434
1,434
2,452
3,474
4,495
5,512
6,517
7,525
8,538
9,542
10,537
11,528
12,528
13,502
14,492
15,487
16,479
17,472
18,487
19,504
20,522
21,534
22,537
23,524
24,512
25,497
26,488
27,486
28,483
29,502
30,527
31,536
32,550
33,571
34,588
35,584
36,568
37,553
38,540
39,534
40,522
41,503
42,488
43,491
44,501
45,504
46,509
47,536
48,544
49,540
50,543
51,534
52,529
53,527
54,527
55,538
56,548
57,543
58,535
59,531
60,520
61,514
62,512
63,515
64,501
65,494
66,502
67,523
68,531
69,521
70,507
71,492
72,485
73,486
74,490
75,500
76,511
77,524
78,526
79,518
80,522
81,526
82,540
83,545
84,537
85,521
86,502
87,487
88,473
89,460
90,464
91,476
92,500
93,518
94,518
95,504
96,497
97,517
98,539
99,529
100,505
101,496
102,504
103,496
104,486
105,491
106,497
107,505
108,508
109,517
110,518
111,521
112,538
113,551
114,531
115,522
116,527
117,536
118,529
119,508
120,498
121,492
122,493
123,493
124,497
125,511
126,511
127,517
128,524
129,519
130,519
131,520
132,528
133,532
134,535
135,539
136,552
137,538
138,538
139,539
140,535
141,527
142,521
143,519
144,511
145,496
146,459
147,438
148,426
149,435
150,448
151,480
152,509
153,521
154,505
155,492
156,480
157,490
158,506
159,524
160,531
161,528
162,534
163,529
164,535
165,533
166,541
167,542
168,548
169,569
170,587
171,593
172,587
173,575
174,578
175,579
176,579
177,577
178,574
179,583
180,590
181,580
182,570
183,555
184,545
185,536
186,515
187,497
188,494
189,490
190,487
191,489
192,498
193,499
194,489
195,487
196,490
197,482
198,496
199,481
200,480
201,491
202,518
203,528
204,521
205,508
206,508
207,514
208,518
209,524
210,533
211,544
212,551
213,545
214,528
215,508
216,501
217,510
218,511
219,508
220,518
221,521
222,529
223,522
224,496
225,484
226,478
227,483
228,494
229,511
230,531
231,525
232,532
233,558
234,565
235,573
236,571
237,560
238,556
239,528
240,512
241,499
242,483
243,476
244,502
245,537
246,551
247,551
248,563
249,573
250,555
251,553
252,567
253,571
254,571
255,573
256,574
257,557
258,536
259,507
260,481
261,455
262,460
263,480
264,493
265,495
266,470
267,448
268,449
269,449
270,445
271,454
272,471
273,486
274,500
275,512
276,510
277,511
278,505
279,498
280,497
281,507
282,514
283,520
284,526
285,521
286,510
287,505
288,512
289,519
290,531
291,526
292,517
293,510
294,513
295,519
296,517
297,522
298,540
299,558
300,560
301,549
302,547
303,547
304,536
305,522
306,515
307,517
308,520
309,527
310,512
311,488
312,481
313,493
314,497
315,510
316,529
317,547
318,548
319,527
320,510
321,507
322,512
323,501
324,485
325,479
326,475
327,469
328,474
329,482
330,489
331,497
332,515
333,528
334,525
335,519
336,512
337,508
338,513
339,504
340,499
341,498
342,509
343,513
344,500
345,494
346,490
347,502
348,511
349,517
350,515
351,514
352,505
353,509
354,499
355,488
356,480
357,471
358,463
359,455
360,456
361,455
362,455
363,462
364,454
365,444
366,427
367,417
368,421
369,423
370,430
371,433
372,442
373,452
374,448
375,441
376,455
377,467
378,482
379,490
380,500
381,499
382,494
383,477
384,460
385,457
386,463
387,474
388,488
389,483
390,476
391,482
392,486
393,497
394,496
395,490
396,487
397,488
398,486
399,479
400,475
401,457
402,453
403,445
404,424
405,412
406,419
407,432
408,449
409,438
410,445
411,436
412,449
413,462
414,462
415,467
416,475
417,480
418,479
419,487
420,496
421,514
422,526
423,519
424,512
425,521
426,511
427,527
428,537
429,541
430,537
431,525
432,526
433,543
434,542
435,538
436,541
437,536
438,519
439,483
440,452
441,451
442,454
443,460
444,476
445,483
446,464
447,457
448,448
449,451
450,456
451,466
452,489
453,507
454,528
455,551
456,558
457,556
458,546
459,545
460,543
461,541
462,543
463,559
464,566
465,561
466,560
467,565
468,567
469,575
470,569
471,580
472,598
473,607
474,607
475,605
476,600
477,599
478,602
479,600
480,598
481,583
482,569
483,566
484,572
485,572
486,550
487,528
488,510
489,492
490,504
491,495
492,483
493,478
494,492
495,505
496,527
497,537
498,563
499,559
500,556
501,545
502,531
503,526
504,514
505,514
506,518
507,529
508,533
509,528
510,523
511,521
512,528
513,533
514,538
515,543
516,538
517,531
518,504
519,469
520,448
521,448
522,449
523,448
524,447
525,446
526,459
527,465
528,472
529,472
530,479
531,497
532,509
533,524
534,522
535,509
536,498
537,510
538,527
539,519
540,503
541,491
542,489
543,488
544,504
545,516
546,524
547,538
548,547
549,553
550,552
551,539
552,535
553,518
554,510
555,502
556,502
557,505
558,504
559,493
560,482
561,481
562,479
563,471
564,481
565,487
566,485
567,491
568,489
569,466
570,438
571,423
572,409
573,403
574,415
575,443
576,465
577,487
578,505
579,498
580,484
581,485
582,496
583,501
584,470
585,453
586,441
587,445
588,448
589,452
590,469
591,486
592,515
593,539
594,540
595,535
596,532
597,528
598,527
599,521
600,514
601,525
602,532
603,538
604,542
605,542
606,536
607,530
608,525
609,517
610,521
611,521
612,523
613,533
614,531
615,525
616,527
617,540
618,550
619,573
620,587
621,577
622,561
623,550
624,546
625,541
626,526
627,520
628,522
629,534
630,540
631,542
632,534
633,514
634,504
635,514
636,518
637,524
638,539
639,554
640,560
641,563
642,563
643,564
644,570
645,560
646,543
647,532
648,515
649,501
650,488
651,485
652,492
653,504
654,509
655,508
656,514
657,524
658,519
659,507
660,494
661,480
662,472
663,478
664,490
665,510
666,539
667,571
668,589
669,585
670,567
671,552
672,545
673,543
674,532
675,539
676,544
677,542
678,540
679,534
680,529
681,529
682,545
683,526
684,503
685,474
686,445
687,428
688,413
689,411
690,424
691,456
692,493
693,519
694,526
695,537
696,540
697,541
698,543
699,536
700,538
701,537
702,539
703,532
704,519
705,504
706,507
707,517
708,526
709,522
710,520
711,517
712,502
713,496
714,501
715,516
716,529
717,549
718,564
719,548
720,535
721,521
722,511
723,510
724,498
725,508
726,526
727,532
728,529
729,531
730,546
731,558
732,575
733,594
734,609
735,611
736,595
737,584
738,564
739,542
740,529
741,526
742,531
743,525
744,512
745,499
746,481
747,474
748,472
749,478
750,492
751,507
752,517
753,524
754,521
755,523
756,528
757,529
758,536
759,559
760,571
761,571
762,563
763,560
764,548
765,536
766,533
767,541
768,552
769,537
770,517
771,506
772,497
773,493
774,502
775,514
776,513
777,519
778,526
779,527
780,536
781,542
782,544
783,551
784,545
785,532
786,521
787,521
788,510
789,488
790,468
791,451
792,452
793,456
794,455
795,448
796,443
797,438
798,427
799,416
800,419
801,438
802,464
803,488
804,498
805,490
806,489
807,494
808,501
809,491
810,483
811,487
812,499
813,510
814,523
815,535
816,544
817,555
818,560
819,540
820,510
821,484
822,483
823,497
824,507
825,512
826,513
827,518
828,524
829,516
830,516
831,515
832,515
833,521
834,506
835,499
836,494
837,492
838,492
839,472
840,464
841,474
842,493
843,514
844,512
845,506
846,498
847,495
848,495
849,499
850,485
851,496
852,511
853,529
854,509
855,496
856,494
857,488
858,499
859,501
860,505
861,517
862,527
863,530
864,523
865,529
866,535
867,517
868,489
869,494
870,510
871,522
872,515
873,512
874,506
875,494
876,498
877,509
878,511
879,502
880,504
881,526
882,519
883,502
884,490
885,485
886,487
887,485
888,481
889,484
890,492
891,497
892,500
893,489
894,481
895,476
896,477
897,483
898,496
899,503
900,519
901,527
902,520
903,511
904,507
905,499
906,492
907,489
908,492
909,495
910,500
911,504
912,505
913,510
914,505
915,512
916,522
917,531
918,536
919,534
920,532
921,525
922,519
923,518
924,511
925,502
926,476
927,475
928,486
929,484
930,485
931,476
932,472
933,489
934,512
935,526
936,532
937,528
938,522
939,506
940,500
941,505
942,506
943,515
944,518
945,527
946,500
947,479
948,472
949,467
950,465
951,463
952,459
953,464
954,468
955,472
956,483
957,505
958,506
959,509
960,516
961,524
962,519
963,503
964,499
965,508
966,515
967,518
968,507
969,509
970,522
971,527
972,525
973,537
974,517
975,510
976,508
977,503
978,502
979,516
980,524
981,523
982,517
983,502
984,501
985,478
986,480
987,506
988,547
989,547
990,546
991,539
992,534
993,525
994,517
995,518
996,517
997,517
998,520
999,524
1000,524
1001,519
1002,511
1003,508
1004,511
1005,511
1006,510
1007,510
1008,514
1009,533
1010,544
1011,550
1012,540
1013,528
1014,523
1015,517
1016,507
1017,502
1018,503
1019,518
1020,528
1021,540
1022,547
1023,543
1024,526
1025,510
1026,496
1027,493
1028,515
1029,517
1030,523
1031,521
1032,530
1033,532
1034,523
1035,491
1036,461
1037,454
1038,462
1039,459
1040,449
1041,450
1042,451
1043,458
1044,458
1045,455
1046,458
1047,472
1048,491
1049,500
1050,514
1051,530
1052,543
1053,543
1054,546
1055,541
1056,538
1057,547
1058,537
1059,529
1060,516
1061,496
1062,477
1063,461
1064,438
1065,441
1066,451
1067,476
1068,489
1069,469
1070,456
1071,448
1072,433
1073,431
1074,423
1075,408
1076,410
1077,418
1078,432
1079,431
1080,451
1081,463
1082,480
1083,498
1084,506
1085,513
1086,521
1087,531
1088,528
1089,517
1090,503
1091,499
1092,504
1093,510
1094,506
1095,505
1096,507
1097,519
1098,531
1099,541
1100,541
1101,545
1102,549
1103,537
1104,520
1105,511
1106,519
1107,522
1108,505
1109,488
1110,479
1111,479
1112,486
1113,492
1114,495
1115,502
1116,506
1117,514
1118,508
1119,503
1120,494
1121,484
1122,481
1123,494
1124,507
1125,513
1126,510
1127,513
1128,511
1129,514
1130,497
1131,495
1132,499
1133,508
1134,534
1135,542
1136,544
1137,544
1138,540
1139,533
1140,524
1141,525
1142,537
1143,543
1144,549
1145,539
1146,512
1147,491
1148,475
1149,478
1150,477
1151,483
1152,490
1153,491
1154,495
1155,496
1156,496
1157,503
1158,514
1159,517
1160,491
1161,476
1162,479
1163,496
1164,507
1165,533
1166,551
1167,567
1168,580
1169,592
1170,595
1171,593
1172,585
1173,573
1174,563
1175,550
1176,543
1177,531
1178,529
1179,529
1180,532
1181,530
1182,534
1183,539
1184,529
1185,515
1186,500
1187,487
1188,486
1189,487
1190,487
1191,499
1192,510
1193,507
1194,499
1195,492
1196,469
1197,440
1198,431
1199,440
1200,461
1201,469
1202,483
1203,498
1204,510
1205,496
1206,500
1207,502
1208,517
1209,496
1210,481
1211,468
1212,472
1213,495
1214,506
1215,513
1216,512
1217,521
1218,521
1219,516
1220,504
1221,487
1222,478
1223,463
1224,444
1225,452
1226,478
1227,499
1228,503
1229,498
1230,493
1231,477
1232,479
1233,488
1234,491
1235,503
1236,510
1237,500
1238,492
1239,486
1240,483
1241,484
1242,494
1243,503
1244,502
1245,493
1246,492
1247,496
1248,503
1249,512
1250,519
1251,527
1252,527
1253,528
1254,539
1255,541
1256,547
1257,550
1258,552
1259,555
1260,534
1261,505
1262,499
1263,513
1264,520
1265,518
1266,521
1267,511
1268,517
1269,521
1270,515
1271,491
1272,493
1273,511
1274,534
1275,528
1276,540
1277,542
1278,537
1279,541
1280,552
1281,545
1282,540
1283,519
1284,498
1285,494
1286,496
1287,498
1288,504
1289,487
1290,480
1291,478
1292,499
1293,522
1294,524
1295,513
1296,500
1297,487
1298,468
1299,459
1300,454
1301,451
1302,451
1303,466
1304,476
1305,487
1306,510
1307,524
1308,546
1309,561
1310,569
1311,553
1312,557
1313,565
1314,568
1315,569
1316,564
1317,556
1318,554
1319,546
1320,530
1321,524
1322,521
1323,529
1324,525
1325,512
1326,504
1327,522
1328,545
1329,551
1330,543
1331,532
1332,521
1333,514
1334,508
1335,513
1336,519
1337,531
1338,543
1339,543
1340,543
1341,551
1342,562
1343,570
1344,572
1345,566
1346,554
1347,543
1348,534
1349,524
1350,521
1351,521
1352,522
1353,525
1354,527
1355,519
1356,513
1357,523
1358,512
1359,501
1360,492
1361,484
1362,484
1363,481
1364,476
1365,482
1366,497
1367,517
1368,523
1369,512
1370,498
1371,495
1372,493
1373,510
1374,522
1375,530
1376,529
1377,519
1378,501
1379,498
1380,494
1381,504
1382,515
1383,527
1384,530
1385,519
1386,502
1387,497
1388,503
1389,500
1390,487
1391,481
1392,507
1393,536
1394,533
1395,540
1396,547
1397,552
1398,556
1399,542
1400,543
1401,542
1402,546
1403,548
1404,548
1405,526
1406,525
1407,529
1408,533
1409,517
1410,486
1411,466
1412,459
1413,463
1414,467
1415,467
1416,467
1417,465
1418,470
1419,484
1420,499
1421,505
1422,508
1423,501
1424,505
1425,516
1426,517
1427,516
1428,505
1429,494
1430,493
1431,504
1432,512
1433,518
1434,521
1435,524
1436,530
1437,528
1438,525
1439,524
1440,537
1441,547
1442,551
1443,542
1444,514
1445,486
1446,476
1447,464
1448,459
1449,457
1450,464
1451,458
1452,457
1453,460
1454,463
1455,469
1456,477
1457,472
1458,471
1459,466
1460,477
1461,489
1462,492
1463,503
1464,514
1465,523
1466,539
1467,548
1468,535
1469,527
1470,527
1471,536
1472,543
1473,553
1474,556
1475,541
1476,540
1477,543
1478,539
1479,527
1480,515
1481,522
1482,537
1483,548
1484,546
1485,548
1486,566
1487,574
1488,570
1489,547
1490,516
1491,499
1492,495
1493,495
1494,499
1495,521
1496,546
1497,569
1498,587
1499,583
1500,575
1501,564
1502,550
1503,536
1504,522
1505,515
1506,514
1507,521
1508,531
1509,536
1510,504
1511,482
1512,472
1513,470
1514,449
1515,444
1516,459
1517,490
1518,495
1519,512
1520,526
1521,542
1522,555
1523,564
1524,566
1525,553
1526,531
1527,516
1528,512
1529,504
1530,492
1531,490
1532,504
1533,511
1534,503
1535,492
1536,481
1537,469
1538,477
1539,490
1540,505
1541,528
1542,540
1543,547
1544,547
1545,541
1546,522
1547,505
1548,495
1549,487
1550,492
1551,507
1552,536
1553,566
1554,579
1555,583
1556,579
1557,573
1558,563
1559,548
1560,537
1561,530
1562,521
1563,483
1564,471
1565,478
1566,493
1567,496
1568,496
1569,487
1570,479
1571,483
1572,493
1573,503
1574,514
1575,527
1576,523
1577,511
1578,518
1579,530
1580,546
1581,563
1582,567
1583,561
1584,544
1585,534
1586,522
1587,510
1588,517
1589,533
1590,536
1591,526
1592,516
1593,497
1594,495
1595,501
1596,505
1597,514
1598,512
1599,519
1600,521
1601,511
1602,512
1603,504
1604,507
1605,512
1606,513
1607,511
1608,479
1609,456
1610,452
1611,455
1612,468
1613,467
1614,460
1615,460
1616,468
1617,492
1618,506
1619,504
1620,489
1621,482
1622,484
1623,479
1624,465
1625,462
1626,467
1627,470
1628,468
1629,470
1630,472
1631,464
1632,463
1633,475
1634,472
1635,472
1636,482
1637,494
1638,499
1639,503
1640,499
1641,490
1642,486
1643,480
1644,465
1645,465
1646,466
1647,475
1648,479
1649,485
1650,483
1651,483
1652,481
1653,469
1654,454
1655,468
1656,475
1657,484
1658,495
1659,504
1660,504
1661,498
1662,501
1663,502
1664,513
1665,518
1666,519
1667,519
1668,513
1669,497
1670,479
1671,456
1672,439
1673,446
1674,440
1675,448
1676,467
1677,483
1678,501
1679,522
1680,543
1681,556
1682,572
1683,585
1684,573
1685,560
1686,538
1687,513
1688,486
1689,470
1690,467
1691,463
1692,455
1693,459
1694,449
1695,438
1696,443
1697,455
1698,456
1699,438
1700,430
1701,431
1702,428
1703,422
1704,430
1705,451
1706,464
1707,468
1708,476
1709,485
1710,496
1711,507
1712,508
1713,499
1714,482
1715,471
1716,484
1717,492
1718,504
1719,495
1720,491
1721,500
1722,511
1723,524
1724,520
1725,515
1726,525
1727,544
1728,560
1729,562
1730,563
1731,562
1732,557
1733,554
1734,556
1735,568
1736,576
1737,591
1738,570
1739,557
1740,556
1741,556
1742,554
1743,548
1744,550
1745,536
1746,521
1747,518
1748,508
1749,499
1750,490
1751,490
1752,494
1753,501
1754,515
1755,538
1756,556
1757,571
1758,588
1759,605
1760,610
1761,604
1762,594
1763,579
1764,579
1765,588
1766,587
1767,588
1768,576
1769,553
1770,539
1771,541
1772,536
1773,537
1774,542
1775,547
1776,542
1777,539
1778,545
1779,541
1780,527
1781,514
1782,506
1783,497
1784,484
1785,471
1786,464
1787,470
1788,483
1789,499
1790,513
1791,509
1792,523
1793,537
1794,529
1795,513
1796,501
1797,508
1798,524
1799,537
1800,540
1801,533
1802,526
1803,533
1804,564
1805,573
1806,563
1807,559
1808,551
1809,550
1810,536
1811,512
1812,493
1813,477
1814,493
1815,521
1816,540
1817,536
1818,539
1819,545
1820,542
1821,534
1822,530
1823,526
1824,529
1825,532
1826,538
1827,536
1828,525
1829,504
1830,486
1831,474
1832,482
1833,497
1834,514
1835,521
1836,506
1837,485
1838,478
1839,451
1840,419
1841,413
1842,425
1843,442
1844,443
1845,448
1846,461
1847,476
1848,497
1849,507
1850,512
1851,516
1852,534
1853,535
1854,531
1855,522
1856,512
1857,507
1858,503
1859,486
1860,476
1861,483
1862,499
1863,511
1864,515
1865,515
1866,513
1867,519
1868,522
1869,516
1870,518
1871,513
1872,526
1873,532
1874,518
1875,500
1876,488
1877,500
1878,483
1879,484
1880,486
1881,489
1882,487
1883,476
1884,460
1885,455
1886,451
1887,452
1888,464
1889,463
1890,469
1891,480
1892,492
1893,500
1894,496
1895,494
1896,496
1897,501
1898,505
1899,507
1900,516
1901,513
1902,512
1903,501
1904,477
1905,466
1906,446
1907,434
1908,448
1909,461
1910,475
1911,476
1912,461
1913,447
1914,431
1915,434
1916,442
1917,443
1918,447
1919,453
1920,478
1921,495
1922,509
1923,529
1924,539
1925,532
1926,515
1927,509
1928,511
1929,510
1930,509
1931,511
1932,511
1933,525
1934,508
1935,511
1936,512
1937,507
1938,506
1939,498
1940,504
1941,514
1942,524
1943,516
1944,506
1945,513
1946,527
1947,552
1948,547
1949,551
1950,543
1951,519
1952,509
1953,508
1954,498
1955,491
1956,492
1957,498
1958,498
1959,484
1960,483
1961,499
1962,511
1963,524
1964,521
1965,520
1966,516
1967,514
1968,504
1969,492
1970,491
1971,486
1972,484
1973,491
1974,496
1975,505
1976,511
1977,521
1978,521
1979,511
1980,518
1981,519
1982,524
1983,524
1984,511
1985,511
1986,511
1987,518
1988,531
1989,530
1990,527
1991,525
1992,527
1993,529
1994,524
1995,511
1996,500
1997,508
1998,518
1999,513
