timestamp,signal
0,580
1,579
2,586
3,583
4,573
5,570
6,568
7,576
8,576
9,574
10,570
11,568
12,560
13,527
14,508
15,508
16,504
17,499
18,489
19,489
20,496
21,502
22,513
23,518
24,528
25,537
26,539
27,527
28,514
29,505
30,497
31,485
32,490
33,469
34,467
35,474
36,472
37,474
38,486
39,514
40,545
41,563
42,566
43,558
44,556
45,554
46,551
47,528
48,506
49,492
50,495
51,501
52,506
53,506
54,503
55,498
56,496
57,491
58,501
59,524
60,546
61,544
62,526
63,500
64,498
65,494
66,485
67,461
68,435
69,421
70,422
71,420
72,420
73,422
74,425
75,432
76,436
77,436
78,448
79,464
80,483
81,498
82,501
83,496
84,495
85,502
86,513
87,518
88,503
89,499
90,504
91,506
92,505
93,502
94,496
95,474
96,450
97,440
98,437
99,435
100,440
101,446
102,475
103,505
104,521
105,523
106,515
107,493
108,484
109,481
110,468
111,456
112,451
113,441
114,435
115,425
116,393
117,377
118,359
119,365
120,388
121,420
122,441
123,453
124,455
125,461
126,471
127,480
128,488
129,505
130,535
131,569
132,594
133,600
134,601
135,599
136,586
137,574
138,566
139,563
140,556
141,547
142,524
143,504
144,499
145,505
146,515
147,520
148,513
149,508
150,507
151,519
152,531
153,547
154,560
155,562
156,549
157,541
158,527
159,521
160,512
161,515
162,512
163,499
164,519
165,527
166,519
167,496
168,503
169,491
170,498
171,514
172,517
173,507
174,508
175,502
176,487
177,480
178,471
179,462
180,465
181,473
182,478
183,480
184,487
185,490
186,499
187,502
188,496
189,497
190,507
191,506
192,499
193,504
194,504
195,497
196,491
197,487
198,484
199,487
200,497
201,498
202,505
203,494
204,497
205,504
206,516
207,527
208,531
209,536
210,547
211,553
212,548
213,537
214,540
215,550
216,559
217,561
218,547
219,543
220,549
221,563
222,560
223,552
224,551
225,556
226,564
227,546
228,521
229,505
230,521
231,538
232,547
233,544
234,542
235,553
236,559
237,547
238,534
239,527
240,532
241,531
242,514
243,485
244,481
245,499
246,509
247,505
248,490
249,479
250,486
251,492
252,498
253,514
254,537
255,543
256,544
257,540
258,537
259,538
260,538
261,523
262,490
263,464
264,456
265,458
266,477
267,489
268,480
269,488
270,503
271,497
272,489
273,490
274,518
275,562
276,596
277,611
278,599
279,578
280,531
281,480
282,452
283,445
284,457
285,467
286,482
287,496
288,505
289,523
290,534
291,544
292,545
293,527
294,510
295,502
296,513
297,522
298,526
299,526
300,529
301,527
302,525
303,524
304,508
305,508
306,519
307,504
308,498
309,504
310,520
311,529
312,529
313,534
314,544
315,552
316,550
317,544
318,543
319,545
320,555
321,556
322,553
323,541
324,542
325,551
326,558
327,536
328,526
329,522
330,529
331,530
332,543
333,543
334,543
335,539
336,527
337,507
338,483
339,480
340,475
341,459
342,459
343,469
344,475
345,481
346,473
347,439
348,424
349,426
350,429
351,441
352,449
353,461
354,459
355,456
356,445
357,433
358,432
359,438
360,453
361,480
362,487
363,465
364,465
365,478
366,491
367,500
368,496
369,489
370,484
371,494
372,504
373,499
374,494
375,487
376,492
377,491
378,484
379,492
380,507
381,519
382,528
383,525
384,532
385,537
386,541
387,543
388,544
389,526
390,524
391,528
392,531
393,534
394,542
395,538
396,519
397,491
398,468
399,471
400,489
401,496
402,490
403,477
404,472
405,486
406,505
407,529
408,535
409,550
410,559
411,567
412,556
413,539
414,521
415,518
416,529
417,519
418,504
419,496
420,491
421,486
422,471
423,462
424,463
425,471
426,485
427,481
428,472
429,484
430,494
431,480
432,475
433,482
434,497
435,510
436,520
437,529
438,533
439,525
440,518
441,519
442,519
443,517
444,518
445,514
446,509
447,494
448,486
449,480
450,471
451,476
452,477
453,485
454,500
455,519
456,531
457,543
458,547
459,555
460,561
461,552
462,538
463,524
464,512
465,501
466,493
467,492
468,494
469,504
470,507
471,507
472,512
473,519
474,523
475,514
476,508
477,517
478,520
479,521
480,519
481,507
482,510
483,522
484,531
485,527
486,512
487,515
488,521
489,529
490,540
491,559
492,571
493,578
494,580
495,582
496,568
497,556
498,537
499,523
500,520
501,512
502,492
503,488
504,487
505,481
506,480
507,472
508,476
509,483
510,492
511,478
512,465
513,454
514,454
515,458
516,469
517,464
518,450
519,440
520,443
521,454
522,443
523,446
524,463
525,470
526,473
527,474
528,485
529,480
530,472
531,488
532,489
533,478
534,472
535,470
536,477
537,468
538,470
539,492
540,503
541,513
542,515
543,531
544,547
545,551
546,546
547,548
548,550
549,553
550,557
551,560
552,558
553,560
554,575
555,563
556,548
557,558
558,568
559,579
560,582
561,576
562,572
563,568
564,565
565,559
566,554
567,536
568,498
569,478
570,472
571,480
572,488
573,486
574,486
575,495
576,502
577,499
578,504
579,508
580,509
581,505
582,495
583,477
584,454
585,436
586,439
587,440
588,441
589,445
590,447
591,455
592,464
593,470
594,474
595,492
596,526
597,544
598,533
599,524
600,521
601,523
602,532
603,551
604,571
605,581
606,589
607,586
608,566
609,553
610,546
611,546
612,555
613,557
614,563
615,563
616,562
617,573
618,571
619,556
620,544
621,524
622,509
623,503
624,507
625,519
626,537
627,548
628,547
629,531
630,513
631,478
632,452
633,440
634,450
635,472
636,491
637,499
638,492
639,490
640,487
641,488
642,489
643,488
644,490
645,493
646,498
647,500
648,505
649,520
650,551
651,576
652,582
653,588
654,604
655,591
656,564
657,549
658,530
659,528
660,526
661,504
662,487
663,482
664,485
665,486
666,487
667,493
668,497
669,507
670,523
671,532
672,517
673,500
674,500
675,505
676,513
677,501
678,507
679,487
680,481
681,479
682,472
683,474
684,483
685,492
686,512
687,532
688,554
689,570
690,590
691,610
692,601
693,590
694,590
695,596
696,592
697,588
698,575
699,553
700,536
701,526
702,517
703,516
704,514
705,501
706,488
707,467
708,453
709,453
710,450
711,458
712,463
713,471
714,481
715,488
716,495
717,499
718,493
719,493
720,480
721,482
722,477
723,457
724,436
725,435
726,459
727,463
728,468
729,477
730,501
731,527
732,523
733,505
734,496
735,499
736,511
737,530
738,547
739,549
740,551
741,550
742,556
743,564
744,570
745,564
746,555
747,564
748,572
749,585
750,601
751,615
752,607
753,615
754,614
755,607
756,593
757,574
758,570
759,555
760,555
761,543
762,541
763,524
764,508
765,493
766,472
767,464
768,452
769,434
770,423
771,437
772,443
773,454
774,467
775,488
776,505
777,505
778,502
779,491
780,482
781,490
782,484
783,478
784,493
785,502
786,504
787,491
788,481
789,485
790,493
791,492
792,499
793,493
794,481
795,476
796,490
797,498
798,495
799,492
800,480
801,481
802,486
803,464
804,455
805,460
806,463
807,454
808,440
809,439
810,443
811,444
812,456
813,476
814,499
815,502
816,515
817,491
818,472
819,480
820,493
821,511
822,517
823,511
824,508
825,516
826,521
827,511
828,496
829,495
830,497
831,507
832,512
833,499
834,498
835,503
836,510
837,511
838,500
839,502
840,506
841,498
842,493
843,501
844,499
845,515
846,519
847,518
848,522
849,530
850,535
851,532
852,530
853,531
854,533
855,536
856,537
857,533
858,523
859,519
860,512
861,510
862,498
863,479
864,465
865,464
866,470
867,470
868,478
869,483
870,481
871,486
872,486
873,493
874,502
875,515
876,521
877,512
878,491
879,469
880,463
881,462
882,455
883,444
884,445
885,455
886,464
887,471
888,468
889,476
890,487
891,497
892,504
893,500
894,509
895,521
896,532
897,561
898,566
899,572
900,572
901,564
902,550
903,541
904,544
905,539
906,528
907,521
908,513
909,512
910,521
911,519
912,524
913,523
914,534
915,554
916,556
917,551
918,534
919,519
920,508
921,496
922,502
923,500
924,498
925,504
926,511
927,526
928,542
929,549
930,550
931,559
932,576
933,575
934,563
935,554
936,538
937,539
938,553
939,569
940,582
941,586
942,592
943,596
944,604
945,610
946,606
947,589
948,556
949,521
950,486
951,472
952,466
953,462
954,474
955,487
956,489
957,482
958,473
959,466
960,465
961,460
962,472
963,480
964,480
965,498
966,518
967,529
968,531
969,530
970,510
971,484
972,458
973,447
974,446
975,459
976,489
977,501
978,492
979,504
980,513
981,521
982,521
983,524
984,530
985,540
986,546
987,565
988,582
989,570
990,564
991,537
992,517
993,515
994,511
995,509
996,508
997,503
998,487
999,483
1000,500
1001,517
1002,521
1003,510
1004,500
1005,491
1006,485
1007,491
1008,494
1009,493
1010,483
1011,463
1012,444
1013,443
1014,464
1015,488
1016,508
1017,516
1018,502
1019,490
1020,490
1021,485
1022,482
1023,477
1024,475
1025,476
1026,472
1027,456
1028,454
1029,463
1030,460
1031,440
1032,420
1033,414
1034,420
1035,430
1036,446
1037,452
1038,450
1039,448
1040,452
1041,448
1042,471
1043,490
1044,488
1045,481
1046,474
1047,495
1048,520
1049,531
1050,532
1051,526
1052,534
1053,548
1054,552
1055,556
1056,563
1057,556
1058,536
1059,523
1060,513
1061,516
1062,511
1063,499
1064,511
1065,529
1066,551
1067,556
1068,542
1069,541
1070,546
1071,547
1072,543
1073,520
1074,496
1075,483
1076,481
1077,475
1078,479
1079,500
1080,516
1081,523
1082,519
1083,507
1084,493
1085,506
1086,499
1087,500
1088,492
1089,492
1090,496
1091,505
1092,497
1093,482
1094,480
1095,481
1096,493
1097,476
1098,459
1099,441
1100,419
1101,412
1102,415
1103,421
1104,434
1105,455
1106,471
1107,462
1108,455
1109,451
1110,449
1111,454
1112,464
1113,469
1114,478
1115,492
1116,493
1117,503
1118,503
1119,519
1120,536
1121,547
1122,551
1123,552
1124,530
1125,519
1126,519
1127,511
1128,510
1129,516
1130,526
1131,528
1132,513
1133,507
1134,508
1135,505
1136,498
1137,500
1138,494
1139,493
1140,496
1141,509
1142,513
1143,505
1144,510
1145,528
1146,557
1147,573
1148,563
1149,565
1150,589
1151,592
1152,590
1153,581
1154,569
1155,547
1156,520
1157,507
1158,466
1159,438
1160,432
1161,440
1162,451
1163,456
1164,468
1165,475
1166,480
1167,483
1168,483
1169,479
1170,478
1171,490
1172,501
1173,503
1174,515
1175,528
1176,541
1177,544
1178,546
1179,544
1180,539
1181,543
1182,532
1183,506
1184,503
1185,516
1186,525
1187,542
1188,546
1189,540
1190,537
1191,524
1192,511
1193,503
1194,515
1195,525
1196,534
1197,528
1198,507
1199,489
1200,494
1201,506
1202,519
1203,528
1204,536
1205,537
1206,524
1207,529
1208,543
1209,543
1210,545
1211,542
1212,533
1213,538
1214,559
1215,574
1216,564
1217,554
1218,537
1219,529
1220,527
1221,530
1222,542
1223,547
1224,534
1225,541
1226,547
1227,550
1228,559
1229,564
1230,550
1231,536
1232,540
1233,540
1234,537
1235,538
1236,526
1237,499
1238,482
1239,480
1240,482
1241,488
1242,477
1243,473
1244,476
1245,480
1246,486
1247,493
1248,498
1249,520
1250,541
1251,568
1252,583
1253,578
1254,567
1255,557
1256,547
1257,538
1258,533
1259,541
1260,547
1261,543
1262,524
1263,508
1264,507
1265,509
1266,513
1267,511
1268,519
1269,531
1270,544
1271,548
1272,529
1273,509
1274,504
1275,511
1276,519
1277,510
1278,497
1279,491
1280,505
1281,522
1282,532
1283,528
1284,521
1285,528
1286,527
1287,519
1288,511
1289,504
1290,496
1291,484
1292,496
1293,516
1294,531
1295,547
1296,555
1297,555
1298,540
1299,535
1300,539
1301,535
1302,545
1303,566
1304,567
1305,572
1306,563
1307,545
1308,524
1309,520
1310,510
1311,496
1312,477
1313,468
1314,475
1315,484
1316,496
1317,497
1318,498
1319,503
1320,514
1321,524
1322,512
1323,489
1324,483
1325,476
1326,478
1327,504
1328,514
1329,525
1330,529
1331,535
1332,544
1333,555
1334,561
1335,558
1336,543
1337,542
1338,543
1339,536
1340,528
1341,534
1342,547
1343,538
1344,536
1345,522
1346,506
1347,503
1348,492
1349,489
1350,503
1351,506
1352,513
1353,506
1354,496
1355,479
1356,468
1357,458
1358,440
1359,431
1360,430
1361,438
1362,454
1363,473
1364,501
1365,514
1366,531
1367,530
1368,522
1369,517
1370,510
1371,511
1372,498
1373,473
1374,473
1375,486
1376,491
1377,493
1378,503
1379,527
1380,529
1381,536
1382,526
1383,526
1384,531
1385,530
1386,529
1387,523
1388,517
1389,519
1390,516
1391,510
1392,497
1393,482
1394,484
1395,502
1396,525
1397,536
1398,545
1399,555
1400,575
1401,600
1402,608
1403,600
1404,577
1405,556
1406,537
1407,508
1408,481
1409,467
1410,476
1411,495
1412,508
1413,514
1414,519
1415,521
1416,516
1417,499
1418,478
1419,454
1420,428
1421,428
1422,435
1423,436
1424,443
1425,454
1426,464
1427,458
1428,447
1429,443
1430,431
1431,429
1432,423
1433,430
1434,435
1435,440
1436,446
1437,446
1438,446
1439,454
1440,463
1441,475
1442,492
1443,503
1444,514
1445,521
1446,511
1447,487
1448,462
1449,464
1450,466
1451,457
1452,450
1453,461
1454,482
1455,482
1456,503
1457,517
1458,510
1459,519
1460,542
1461,566
1462,567
1463,554
1464,550
1465,544
1466,535
1467,514
1468,501
1469,499
1470,492
1471,483
1472,478
1473,472
1474,483
1475,498
1476,511
1477,496
1478,484
1479,478
1480,494
1481,518
1482,529
1483,540
1484,549
1485,556
1486,548
1487,532
1488,520
1489,517
1490,509
1491,510
1492,503
1493,511
1494,532
1495,541
1496,549
1497,549
1498,527
1499,515
1500,515
1501,522
1502,530
1503,553
1504,543
1505,542
1506,537
1507,526
1508,515
1509,517
1510,532
1511,551
1512,542
1513,527
1514,514
1515,510
1516,498
1517,480
1518,473
1519,473
1520,477
1521,470
1522,450
1523,441
1524,450
1525,457
1526,480
1527,488
1528,483
1529,491
1530,508
1531,528
1532,542
1533,551
1534,557
1535,545
1536,541
1537,527
1538,512
1539,510
1540,514
1541,514
1542,518
1543,500
1544,493
1545,499
1546,490
1547,498
1548,508
1549,526
1550,549
1551,568
1552,595
1553,576
1554,573
1555,566
1556,563
1557,554
1558,535
1559,528
1560,522
1561,526
1562,530
1563,535
1564,535
1565,535
1566,516
1567,500
1568,491
1569,494
1570,500
1571,502
1572,494
1573,486
1574,491
1575,492
1576,496
1577,487
1578,470
1579,469
1580,481
1581,504
1582,524
1583,551
1584,575
1585,584
1586,581
1587,548
1588,521
1589,519
1590,515
1591,505
1592,496
1593,495
1594,494
1595,489
1596,490
1597,494
1598,496
1599,508
1600,518
1601,514
1602,504
1603,481
1604,475
1605,486
1606,495
1607,493
1608,492
1609,493
1610,497
1611,491
1612,471
1613,448
1614,450
1615,454
1616,457
1617,447
1618,427
1619,415
1620,412
1621,414
1622,418
1623,417
1624,425
1625,440
1626,454
1627,461
1628,466
1629,477
1630,497
1631,511
1632,518
1633,520
1634,531
1635,536
1636,533
1637,536
1638,528
1639,515
1640,505
1641,503
1642,496
1643,489
1644,500
1645,519
1646,527
1647,506
1648,476
1649,464
1650,473
1651,483
1652,509
1653,524
1654,541
1655,545
1656,549
1657,551
1658,558
1659,568
1660,572
1661,571
1662,563
1663,564
1664,560
1665,561
1666,561
1667,559
1668,542
1669,510
1670,491
1671,479
1672,487
1673,495
1674,488
1675,473
1676,455
1677,451
1678,460
1679,465
1680,462
1681,473
1682,484
1683,487
1684,492
1685,507
1686,521
1687,527
1688,520
1689,521
1690,524
1691,526
1692,530
1693,526
1694,531
1695,546
1696,558
1697,554
1698,541
1699,543
1700,546
1701,538
1702,509
1703,486
1704,481
1705,479
1706,487
1707,489
1708,489
1709,483
1710,473
1711,462
1712,437
1713,416
1714,406
1715,410
1716,426
1717,441
1718,451
1719,468
1720,492
1721,518
1722,529
1723,545
1724,571
1725,591
1726,595
1727,573
1728,549
1729,535
1730,534
1731,530
1732,520
1733,502
1734,504
1735,515
1736,532
1737,515
1738,483
1739,477
1740,483
1741,497
1742,506
1743,508
1744,522
1745,529
1746,522
1747,520
1748,524
1749,543
1750,561
1751,559
1752,557
1753,546
1754,549
1755,564
1756,567
1757,551
1758,523
1759,492
1760,482
1761,489
1762,501
1763,505
1764,503
1765,514
1766,539
1767,543
1768,534
1769,545
1770,563
1771,563
1772,550
1773,535
1774,525
1775,522
1776,526
1777,531
1778,530
1779,529
1780,543
1781,558
1782,556
1783,536
1784,519
1785,519
1786,514
1787,510
1788,508
1789,509
1790,512
1791,524
1792,526
1793,527
1794,530
1795,530
1796,541
1797,547
1798,555
1799,556
1800,532
1801,509
1802,481
1803,471
1804,471
1805,462
1806,463
1807,454
1808,448
1809,467
1810,487
1811,500
1812,498
1813,502
1814,523
1815,549
1816,564
1817,559
1818,547
1819,534
1820,528
1821,524
1822,507
1823,483
1824,467
1825,463
1826,474
1827,486
1828,499
1829,513
1830,520
1831,517
1832,513
1833,516
1834,501
1835,494
1836,495
1837,485
1838,480
1839,497
1840,504
1841,516
1842,511
1843,503
1844,512
1845,530
1846,543
1847,536
1848,517
1849,507
1850,512
1851,521
1852,523
1853,516
1854,509
1855,503
1856,502
1857,496
1858,474
1859,460
1860,457
1861,465
1862,474
1863,491
1864,505
1865,524
1866,537
1867,546
1868,547
1869,560
1870,558
1871,551
1872,528
1873,505
1874,486
1875,480
1876,490
1877,494
1878,478
1879,461
1880,456
1881,457
1882,454
1883,444
1884,441
1885,447
1886,466
1887,482
1888,483
1889,487
1890,487
1891,494
1892,501
1893,491
1894,492
1895,510
1896,536
1897,544
1898,537
1899,513
1900,476
1901,455
1902,463
1903,479
1904,500
1905,517
1906,524
1907,524
1908,527
1909,532
1910,556
1911,582
1912,582
1913,577
1914,583
1915,590
1916,595
1917,589
1918,579
1919,560
1920,562
1921,555
1922,541
1923,515
1924,499
1925,500
1926,498
1927,495
1928,497
1929,513
1930,519
1931,514
1932,497
1933,478
1934,470
1935,468
1936,478
1937,486
1938,493
1939,508
1940,517
1941,527
1942,541
1943,539
1944,542
1945,541
1946,532
1947,516
1948,504
1949,507
1950,512
1951,520
1952,510
1953,507
1954,518
1955,524
1956,528
1957,538
1958,544
1959,551
1960,557
1961,566
1962,583
1963,583
1964,575
1965,572
1966,566
1967,570
1968,571
1969,576
1970,563
1971,543
1972,512
1973,480
1974,466
1975,471
1976,485
1977,511
1978,528
1979,544
1980,542
1981,545
1982,564
1983,572
1984,579
1985,565
1986,563
1987,558
1988,550
1989,559
1990,555
1991,530
1992,500
1993,470
1994,456
1995,457
1996,464
1997,458
1998,456
1999,470
