timestamp,signal
0,554
1,542
2,531
3,528
4,524
5,525
6,519
7,508
8,496
9,484
10,483
11,493
12,511
13,520
14,521
15,509
16,484
17,459
18,448
19,440
20,449
21,465
22,483
23,482
24,478
25,474
26,459
27,444
28,435
29,423
30,418
31,427
32,439
33,435
34,455
35,465
36,482
37,509
38,527
39,545
40,560
41,562
42,558
43,554
44,564
45,572
46,571
47,566
48,547
49,540
50,544
51,542
52,549
53,567
54,579
55,578
56,574
57,582
58,587
59,583
60,569
61,544
62,529
63,516
64,519
65,522
66,531
67,539
68,525
69,513
70,500
71,494
72,495
73,501
74,506
75,504
76,506
77,520
78,520
79,505
80,492
81,476
82,467
83,462
84,469
85,477
86,470
87,466
88,476
89,487
90,497
91,513
92,523
93,530
94,531
95,524
96,509
97,495
98,481
99,472
100,472
101,482
102,500
103,519
104,514
105,512
106,514
107,519
108,513
109,497
110,492
111,492
112,495
113,513
114,508
115,506
116,500
117,498
118,494
119,503
120,519
121,526
122,532
123,539
124,529
125,504
126,489
127,491
128,500
129,499
130,482
131,467
132,468
133,467
134,471
135,487
136,506
137,534
138,552
139,560
140,563
141,545
142,521
143,504
144,500
145,505
146,499
147,503
148,503
149,487
150,482
151,477
152,483
153,494
154,478
155,467
156,471
157,456
158,448
159,442
160,453
161,464
162,476
163,480
164,489
165,507
166,509
167,505
168,503
169,501
170,493
171,491
172,495
173,500
174,500
175,501
176,502
177,497
178,492
179,477
180,483
181,480
182,485
183,490
184,498
185,509
186,519
187,524
188,538
189,560
190,587
191,604
192,604
193,588
194,583
195,573
196,556
197,534
198,523
199,526
200,555
201,545
202,534
203,525
204,522
205,507
206,483
207,471
208,473
209,489
210,504
211,506
212,513
213,528
214,521
215,519
216,520
217,522
218,522
219,513
220,515
221,504
222,495
223,489
224,492
225,487
226,470
227,464
228,472
229,488
230,499
231,500
232,512
233,505
234,493
235,476
236,481
237,494
238,505
239,501
240,505
241,511
242,519
243,515
244,516
245,508
246,499
247,506
248,506
249,489
250,474
251,476
252,480
253,488
254,497
255,507
256,522
257,546
258,563
259,565
260,560
261,555
262,562
263,554
264,527
265,516
266,499
267,489
268,482
269,471
270,460
271,451
272,455
273,472
274,504
275,527
276,536
277,542
278,538
279,549
280,554
281,539
282,519
283,506
284,506
285,517
286,517
287,520
288,505
289,500
290,495
291,499
292,504
293,507
294,517
295,530
296,533
297,530
298,540
299,525
300,522
301,526
302,532
303,536
304,541
305,544
306,541
307,559
308,542
309,540
310,545
311,543
312,542
313,543
314,535
315,529
316,524
317,521
318,524
319,516
320,517
321,512
322,516
323,530
324,535
325,503
326,491
327,494
328,504
329,513
330,534
331,555
332,570
333,574
334,563
335,560
336,564
337,569
338,559
339,535
340,518
341,506
342,487
343,466
344,453
345,463
346,476
347,490
348,481
349,476
350,473
351,463
352,464
353,478
354,482
355,492
356,509
357,523
358,535
359,555
360,560
361,542
362,550
363,555
364,549
365,547
366,545
367,538
368,528
369,522
370,528
371,527
372,523
373,517
374,523
375,528
376,543
377,561
378,566
379,551
380,530
381,499
382,488
383,487
384,480
385,474
386,484
387,506
388,521
389,528
390,526
391,515
392,519
393,516
394,506
395,508
396,519
397,541
398,557
399,556
400,542
401,535
402,527
403,518
404,512
405,517
406,521
407,532
408,536
409,532
410,527
411,528
412,519
413,510
414,491
415,491
416,505
417,531
418,542
419,541
420,536
421,536
422,556
423,566
424,557
425,536
426,515
427,508
428,514
429,519
430,511
431,489
432,478
433,486
434,478
435,479
436,499
437,512
438,522
439,524
440,519
441,504
442,492
443,486
444,485
445,481
446,476
447,472
448,471
449,487
450,506
451,510
452,512
453,516
454,504
455,509
456,509
457,512
458,511
459,519
460,519
461,511
462,509
463,513
464,526
465,536
466,516
467,501
468,499
469,499
470,505
471,512
472,532
473,543
474,554
475,557
476,543
477,525
478,516
479,517
480,534
481,551
482,564
483,555
484,532
485,518
486,504
487,480
488,459
489,440
490,439
491,443
492,457
493,463
494,453
495,461
496,471
497,484
498,498
499,503
500,509
501,516
502,528
503,525
504,525
505,519
506,505
507,513
508,531
509,540
510,542
511,547
512,572
513,593
514,604
515,609
516,597
517,577
518,553
519,514
520,483
521,466
522,462
523,468
524,472
525,477
526,472
527,467
528,472
529,476
530,473
531,481
532,492
533,501
534,501
535,494
536,487
537,481
538,481
539,468
540,462
541,459
542,451
543,466
544,487
545,501
546,499
547,500
548,509
549,530
550,551
551,573
552,598
553,618
554,626
555,614
556,589
557,569
558,546
559,525
560,511
561,506
562,508
563,514
564,505
565,494
566,487
567,486
568,489
569,494
570,502
571,509
572,518
573,528
574,502
575,488
576,484
577,488
578,500
579,502
580,498
581,482
582,473
583,465
584,450
585,445
586,446
587,464
588,480
589,477
590,473
591,472
592,487
593,500
594,493
595,493
596,497
597,512
598,525
599,519
600,513
601,509
602,511
603,507
604,490
605,475
606,477
607,486
608,485
609,464
610,465
611,469
612,475
613,491
614,515
615,539
616,543
617,536
618,543
619,536
620,539
621,543
622,545
623,545
624,525
625,508
626,474
627,448
628,440
629,438
630,443
631,456
632,476
633,491
634,506
635,520
636,530
637,545
638,553
639,546
640,533
641,515
642,513
643,519
644,505
645,480
646,465
647,469
648,472
649,471
650,485
651,490
652,506
653,507
654,527
655,531
656,534
657,527
658,534
659,542
660,534
661,517
662,498
663,479
664,476
665,478
666,470
667,458
668,449
669,459
670,475
671,472
672,471
673,489
674,474
675,471
676,474
677,494
678,522
679,530
680,530
681,529
682,527
683,497
684,467
685,458
686,468
687,491
688,505
689,503
690,492
691,476
692,475
693,474
694,475
695,468
696,467
697,472
698,496
699,506
700,516
701,519
702,517
703,526
704,497
705,484
706,475
707,475
708,496
709,511
710,520
711,523
712,508
713,506
714,519
715,515
716,502
717,491
718,500
719,524
720,547
721,553
722,544
723,543
724,551
725,550
726,529
727,505
728,471
729,443
730,436
731,431
732,439
733,449
734,460
735,469
736,479
737,495
738,515
739,531
740,528
741,529
742,546
743,560
744,566
745,566
746,556
747,549
748,552
749,551
750,543
751,536
752,540
753,534
754,512
755,504
756,506
757,504
758,499
759,492
760,484
761,481
762,484
763,504
764,534
765,543
766,531
767,522
768,534
769,560
770,565
771,560
772,568
773,579
774,568
775,557
776,531
777,513
778,504
779,499
780,497
781,496
782,498
783,505
784,517
785,526
786,510
787,487
788,481
789,485
790,493
791,506
792,504
793,505
794,496
795,491
796,495
797,499
798,499
799,500
800,508
801,514
802,497
803,479
804,455
805,448
806,451
807,452
808,461
809,471
810,487
811,501
812,516
813,536
814,533
815,516
816,496
817,482
818,462
819,448
820,447
821,465
822,496
823,518
824,524
825,525
826,521
827,532
828,566
829,582
830,594
831,597
832,584
833,558
834,518
835,495
836,482
837,476
838,469
839,478
840,465
841,451
842,461
843,474
844,475
845,482
846,483
847,483
848,493
849,483
850,485
851,491
852,491
853,499
854,513
855,536
856,531
857,534
858,543
859,547
860,541
861,526
862,519
863,523
864,513
865,500
866,488
867,481
868,477
869,464
870,459
871,446
872,449
873,450
874,426
875,415
876,413
877,426
878,448
879,448
880,448
881,446
882,453
883,492
884,530
885,545
886,542
887,534
888,528
889,520
890,511
891,511
892,518
893,538
894,551
895,551
896,547
897,546
898,552
899,552
900,542
901,531
902,520
903,515
904,516
905,527
906,533
907,533
908,524
909,518
910,513
911,503
912,505
913,523
914,513
915,512
916,508
917,497
918,495
919,483
920,472
921,466
922,476
923,478
924,472
925,471
926,470
927,485
928,502
929,509
930,513
931,513
932,517
933,519
934,525
935,536
936,544
937,551
938,546
939,551
940,553
941,555
942,559
943,570
944,587
945,599
946,597
947,588
948,584
949,591
950,584
951,568
952,558
953,559
954,563
955,548
956,531
957,513
958,503
959,506
960,508
961,504
962,514
963,519
964,515
965,510
966,510
967,505
968,510
969,502
970,504
971,497
972,496
973,504
974,519
975,540
976,545
977,558
978,565
979,558
980,543
981,528
982,512
983,494
984,472
985,468
986,464
987,463
988,469
989,475
990,487
991,497
992,510
993,518
994,503
995,494
996,493
997,499
998,511
999,500
1000,498
1001,504
1002,517
1003,529
1004,534
1005,536
1006,510
1007,490
1008,469
1009,476
1010,488
1011,501
1012,518
1013,546
1014,565
1015,577
1016,577
1017,568
1018,560
1019,556
1020,556
1021,565
1022,553
1023,543
1024,528
1025,517
1026,502
1027,500
1028,499
1029,504
1030,508
1031,510
1032,506
1033,507
1034,504
1035,511
1036,505
1037,518
1038,515
1039,516
1040,501
1041,489
1042,489
1043,496
1044,490
1045,486
1046,465
1047,439
1048,415
1049,381
1050,374
1051,393
1052,426
1053,459
1054,475
1055,472
1056,475
1057,471
1058,469
1059,469
1060,473
1061,461
1062,459
1063,460
1064,460
1065,461
1066,457
1067,463
1068,466
1069,463
1070,453
1071,450
1072,461
1073,481
1074,488
1075,489
1076,493
1077,502
1078,508
1079,522
1080,524
1081,521
1082,519
1083,525
1084,534
1085,524
1086,518
1087,500
1088,485
1089,482
1090,469
1091,456
1092,462
1093,464
1094,477
1095,477
1096,471
1097,472
1098,476
1099,475
1100,471
1101,471
1102,480
1103,489
1104,494
1105,491
1106,490
1107,502
1108,516
1109,518
1110,512
1111,508
1112,510
1113,519
1114,534
1115,543
1116,531
1117,522
1118,521
1119,524
1120,524
1121,530
1122,535
1123,537
1124,539
1125,523
1126,512
1127,507
1128,508
1129,498
1130,501
1131,509
1132,520
1133,531
1134,551
1135,577
1136,591
1137,584
1138,568
1139,556
1140,546
1141,522
1142,508
1143,499
1144,496
1145,494
1146,499
1147,516
1148,534
1149,539
1150,531
1151,510
1152,498
1153,496
1154,483
1155,489
1156,495
1157,492
1158,493
1159,484
1160,481
1161,481
1162,482
1163,490
1164,491
1165,490
1166,491
1167,505
1168,513
1169,496
1170,485
1171,474
1172,459
1173,452
1174,447
1175,450
1176,455
1177,471
1178,492
1179,507
1180,528
1181,531
1182,518
1183,514
1184,506
1185,501
1186,492
1187,489
1188,475
1189,475
1190,479
1191,487
1192,493
1193,500
1194,516
1195,527
1196,527
1197,532
1198,527
1199,530
1200,538
1201,544
1202,560
1203,583
1204,597
1205,590
1206,576
1207,568
1208,557
1209,553
1210,552
1211,552
1212,561
1213,572
1214,574
1215,579
1216,578
1217,580
1218,585
1219,585
1220,589
1221,587
1222,577
1223,563
1224,561
1225,562
1226,557
1227,561
1228,559
1229,556
1230,541
1231,528
1232,513
1233,494
1234,481
1235,480
1236,483
1237,494
1238,515
1239,514
1240,521
1241,527
1242,534
1243,547
1244,540
1245,532
1246,519
1247,507
1248,498
1249,491
1250,498
1251,500
1252,503
1253,508
1254,503
1255,491
1256,500
1257,485
1258,479
1259,482
1260,478
1261,475
1262,481
1263,495
1264,510
1265,527
1266,539
1267,535
1268,523
1269,513
1270,510
1271,496
1272,489
1273,502
1274,525
1275,543
1276,531
1277,519
1278,510
1279,501
1280,492
1281,483
1282,480
1283,483
1284,486
1285,498
1286,505
1287,511
1288,512
1289,500
1290,487
1291,483
1292,495
1293,507
1294,505
1295,501
1296,492
1297,484
1298,487
1299,478
1300,484
1301,480
1302,470
1303,464
1304,460
1305,467
1306,477
1307,492
1308,476
1309,471
1310,469
1311,463
1312,458
1313,461
1314,476
1315,483
1316,490
1317,517
1318,531
1319,542
1320,543
1321,552
1322,553
1323,566
1324,579
1325,595
1326,598
1327,600
1328,589
1329,562
1330,527
1331,504
1332,496
1333,508
1334,520
1335,526
1336,516
1337,509
1338,509
1339,509
1340,518
1341,519
1342,512
1343,503
1344,508
1345,519
1346,541
1347,548
1348,559
1349,570
1350,574
1351,565
1352,552
1353,538
1354,537
1355,539
1356,539
1357,556
1358,568
1359,563
1360,560
1361,534
1362,503
1363,489
1364,488
1365,491
1366,493
1367,504
1368,519
1369,525
1370,542
1371,554
1372,567
1373,569
1374,565
1375,552
1376,536
1377,538
1378,524
1379,519
1380,521
1381,524
1382,498
1383,482
1384,464
1385,468
1386,472
1387,470
1388,478
1389,483
1390,493
1391,497
1392,496
1393,499
1394,491
1395,481
1396,487
1397,479
1398,478
1399,476
1400,464
1401,454
1402,461
1403,479
1404,490
1405,498
1406,492
1407,495
1408,512
1409,505
1410,515
1411,516
1412,526
1413,541
1414,552
1415,551
1416,550
1417,554
1418,560
1419,557
1420,551
1421,546
1422,537
1423,531
1424,522
1425,514
1426,519
1427,531
1428,538
1429,530
1430,523
1431,521
1432,526
1433,535
1434,530
1435,536
1436,535
1437,528
1438,524
1439,531
1440,528
1441,523
1442,519
1443,517
1444,535
1445,557
1446,556
1447,559
1448,558
1449,564
1450,562
1451,542
1452,502
1453,479
1454,465
1455,467
1456,472
1457,478
1458,491
1459,502
1460,502
1461,495
1462,483
1463,472
1464,467
1465,468
1466,463
1467,455
1468,465
1469,456
1470,448
1471,448
1472,459
1473,467
1474,480
1475,501
1476,520
1477,532
1478,533
1479,517
1480,492
1481,455
1482,439
1483,438
1484,431
1485,438
1486,457
1487,475
1488,503
1489,530
1490,537
1491,536
1492,536
1493,534
1494,539
1495,532
1496,526
1497,527
1498,529
1499,542
1500,554
1501,561
1502,553
1503,529
1504,495
1505,472
1506,454
1507,452
1508,465
1509,491
1510,505
1511,525
1512,542
1513,554
1514,551
1515,541
1516,526
1517,515
1518,510
1519,494
1520,498
1521,499
1522,498
1523,507
1524,523
1525,535
1526,545
1527,557
1528,567
1529,565
1530,560
1531,561
1532,565
1533,551
1534,549
1535,551
1536,550
1537,548
1538,548
1539,553
1540,558
1541,546
1542,538
1543,521
1544,510
1545,483
1546,476
1547,481
1548,488
1549,499
1550,506
1551,510
1552,504
1553,500
1554,499
1555,494
1556,488
1557,487
1558,482
1559,463
1560,466
1561,455
1562,459
1563,470
1564,492
1565,518
1566,531
1567,538
1568,539
1569,533
1570,527
1571,523
1572,523
1573,525
1574,515
1575,513
1576,508
1577,503
1578,489
1579,487
1580,504
1581,520
1582,530
1583,548
1584,526
1585,519
1586,514
1587,516
1588,523
1589,516
1590,515
1591,513
1592,510
1593,496
1594,487
1595,481
1596,490
1597,499
1598,505
1599,505
1600,490
1601,463
1602,450
1603,455
1604,460
1605,449
1606,452
1607,476
1608,507
1609,527
1610,537
1611,543
1612,537
1613,544
1614,528
1615,517
1616,499
1617,497
1618,498
1619,492
1620,485
1621,481
1622,491
1623,503
1624,521
1625,527
1626,531
1627,535
1628,529
1629,533
1630,538
1631,552
1632,559
1633,550
1634,548
1635,544
1636,543
1637,541
1638,533
1639,532
1640,538
1641,538
1642,537
1643,543
1644,554
1645,551
1646,531
1647,520
1648,514
1649,504
1650,505
1651,512
1652,518
1653,514
1654,505
1655,501
1656,501
1657,496
1658,489
1659,494
1660,506
1661,505
1662,499
1663,498
1664,504
1665,515
1666,519
1667,524
1668,538
1669,530
1670,511
1671,494
1672,485
1673,490
1674,482
1675,471
1676,467
1677,471
1678,477
1679,492
1680,508
1681,518
1682,525
1683,536
1684,536
1685,540
1686,546
1687,557
1688,558
1689,551
1690,533
1691,527
1692,518
1693,523
1694,511
1695,483
1696,460
1697,440
1698,437
1699,438
1700,441
1701,445
1702,448
1703,443
1704,427
1705,432
1706,434
1707,452
1708,466
1709,463
1710,460
1711,479
1712,508
1713,539
1714,540
1715,527
1716,510
1717,519
1718,506
1719,518
1720,527
1721,534
1722,519
1723,524
1724,537
1725,539
1726,528
1727,519
1728,499
1729,493
1730,490
1731,478
1732,472
1733,483
1734,500
1735,504
1736,500
1737,508
1738,528
1739,540
1740,530
1741,516
1742,517
1743,515
1744,502
1745,491
1746,474
1747,476
1748,486
1749,502
1750,506
1751,513
1752,517
1753,525
1754,534
1755,544
1756,545
1757,537
1758,506
1759,471
1760,449
1761,424
1762,416
1763,423
1764,409
1765,405
1766,421
1767,445
1768,463
1769,445
1770,431
1771,427
1772,435
1773,446
1774,440
1775,450
1776,453
1777,455
1778,460
1779,461
1780,455
1781,439
1782,423
1783,414
1784,427
1785,441
1786,462
1787,482
1788,505
1789,511
1790,509
1791,512
1792,524
1793,533
1794,527
1795,525
1796,526
1797,534
1798,541
1799,542
1800,542
1801,530
1802,519
1803,509
1804,510
1805,521
1806,517
1807,518
1808,518
1809,510
1810,502
1811,504
1812,515
1813,524
1814,517
1815,509
1816,497
1817,500
1818,505
1819,507
1820,511
1821,529
1822,548
1823,547
1824,547
1825,553
1826,555
1827,548
1828,542
1829,533
1830,520
1831,506
1832,499
1833,488
1834,458
1835,446
1836,443
1837,454
1838,470
1839,489
1840,519
1841,541
1842,557
1843,570
1844,549
1845,531
1846,507
1847,496
1848,495
1849,490
1850,500
1851,512
1852,523
1853,536
1854,538
1855,524
1856,512
1857,516
1858,532
1859,533
1860,527
1861,535
1862,522
1863,508
1864,500
1865,500
1866,503
1867,516
1868,538
1869,523
1870,518
1871,503
1872,492
1873,486
1874,490
1875,487
1876,476
1877,475
1878,486
1879,499
1880,512
1881,523
1882,532
1883,539
1884,544
1885,537
1886,536
1887,545
1888,547
1889,561
1890,573
1891,560
1892,543
1893,534
1894,520
1895,521
1896,527
1897,537
1898,540
1899,526
1900,502
1901,494
1902,510
1903,493
1904,477
1905,470
1906,467
1907,464
1908,470
1909,476
1910,476
1911,483
1912,494
1913,497
1914,508
1915,522
1916,523
1917,538
1918,529
1919,534
1920,544
1921,540
1922,536
1923,526
1924,518
1925,494
1926,495
1927,508
1928,512
1929,491
1930,472
1931,464
1932,476
1933,490
1934,490
1935,495
1936,510
1937,516
1938,521
1939,512
1940,507
1941,509
1942,512
1943,526
1944,546
1945,543
1946,553
1947,543
1948,547
1949,548
1950,547
1951,536
1952,538
1953,560
1954,555
1955,548
1956,530
1957,519
1958,513
1959,504
1960,494
1961,494
1962,505
1963,525
1964,543
1965,549
1966,547
1967,540
1968,552
1969,540
1970,524
1971,506
1972,515
1973,540
1974,547
1975,550
1976,550
1977,546
1978,557
1979,523
1980,504
1981,488
1982,499
1983,512
1984,516
1985,524
1986,520
1987,534
1988,553
1989,567
1990,569
1991,571
1992,574
1993,559
1994,540
1995,533
1996,529
1997,542
1998,558
1999,552
