timestamp,signal
0,562
1,566
2,551
3,542
4,538
5,534
6,540
7,539
8,528
9,509
10,501
11,492
12,479
13,471
14,465
15,465
16,476
17,483
18,482
19,474
20,484
21,485
22,487
23,481
24,475
25,474
26,467
27,460
28,458
29,441
30,434
31,443
32,466
33,483
34,486
35,502
36,523
37,529
38,531
39,531
40,510
41,511
42,512
43,505
44,489
45,476
46,473
47,469
48,473
49,478
50,488
51,502
52,511
53,510
54,506
55,512
56,514
57,500
58,477
59,462
60,475
61,506
62,521
63,517
64,523
65,532
66,534
67,540
68,544
69,527
70,498
71,474
72,483
73,495
74,498
75,494
76,493
77,503
78,511
79,524
80,543
81,541
82,536
83,529
84,512
85,499
86,497
87,506
88,515
89,516
90,500
91,486
92,502
93,511
94,504
95,507
96,505
97,514
98,522
99,529
100,539
101,556
102,567
103,572
104,575
105,570
106,565
107,544
108,520
109,497
110,482
111,481
112,484
113,486
114,488
115,513
116,536
117,535
118,513
119,488
120,477
121,473
122,485
123,513
124,519
125,525
126,539
127,547
128,560
129,572
130,579
131,583
132,568
133,559
134,552
135,552
136,553
137,534
138,526
139,529
140,532
141,524
142,499
143,469
144,444
145,431
146,418
147,417
148,434
149,454
150,478
151,507
152,535
153,559
154,551
155,536
156,531
157,521
158,513
159,510
160,509
161,508
162,512
163,524
164,527
165,532
166,537
167,526
168,521
169,526
170,540
171,558
172,561
173,560
174,552
175,551
176,550
177,554
178,560
179,566
180,562
181,547
182,544
183,544
184,543
185,543
186,541
187,550
188,536
189,531
190,538
191,536
192,545
193,572
194,586
195,597
196,598
197,587
198,568
199,550
200,537
201,535
202,536
203,514
204,491
205,480
206,474
207,463
208,460
209,468
210,488
211,496
212,486
213,480
214,486
215,486
216,512
217,521
218,518
219,499
220,485
221,483
222,472
223,458
224,440
225,450
226,441
227,425
228,413
229,403
230,402
231,417
232,433
233,453
234,463
235,476
236,502
237,522
238,527
239,515
240,513
241,518
242,519
243,511
244,499
245,495
246,493
247,495
248,504
249,504
250,494
251,493
252,485
253,489
254,487
255,495
256,514
257,540
258,564
259,562
260,554
261,544
262,543
263,532
264,517
265,505
266,496
267,496
268,500
269,517
270,523
271,515
272,513
273,506
274,501
275,500
276,504
277,505
278,504
279,489
280,481
281,482
282,488
283,495
284,491
285,490
286,499
287,501
288,489
289,482
290,483
291,487
292,496
293,509
294,511
295,516
296,518
297,522
298,530
299,534
300,546
301,554
302,551
303,558
304,572
305,574
306,557
307,527
308,517
309,520
310,511
311,503
312,492
313,487
314,480
315,473
316,459
317,461
318,478
319,500
320,516
321,541
322,535
323,534
324,526
325,521
326,515
327,532
328,547
329,562
330,569
331,567
332,569
333,573
334,574
335,571
336,557
337,515
338,504
339,501
340,503
341,512
342,518
343,525
344,538
345,555
346,549
347,532
348,532
349,523
350,515
351,502
352,486
353,479
354,483
355,496
356,504
357,510
358,523
359,530
360,536
361,533
362,518
363,508
364,496
365,483
366,489
367,492
368,496
369,483
370,475
371,474
372,490
373,486
374,480
375,471
376,485
377,501
378,513
379,510
380,506
381,502
382,492
383,499
384,477
385,471
386,473
387,485
388,502
389,512
390,532
391,539
392,523
393,521
394,517
395,516
396,520
397,529
398,541
399,539
400,540
401,556
402,550
403,539
404,529
405,533
406,534
407,516
408,516
409,491
410,489
411,489
412,488
413,492
414,488
415,490
416,479
417,486
418,494
419,489
420,502
421,505
422,516
423,518
424,514
425,516
426,512
427,510
428,505
429,496
430,499
431,499
432,496
433,500
434,495
435,500
436,519
437,521
438,530
439,537
440,548
441,553
442,544
443,546
444,543
445,549
446,546
447,538
448,536
449,544
450,544
451,550
452,546
453,545
454,540
455,531
456,536
457,538
458,522
459,510
460,511
461,499
462,464
463,443
464,428
465,431
466,432
467,432
468,439
469,433
470,437
471,457
472,476
473,485
474,467
475,461
476,468
477,483
478,489
479,482
480,481
481,488
482,504
483,507
484,489
485,484
486,486
487,493
488,485
489,480
490,483
491,488
492,472
493,450
494,417
495,416
496,413
497,418
498,427
499,446
500,440
501,441
502,459
503,479
504,484
505,496
506,517
507,534
508,538
509,534
510,536
511,543
512,540
513,536
514,541
515,529
516,525
517,514
518,509
519,502
520,500
521,503
522,500
523,505
524,507
525,509
526,509
527,518
528,519
529,510
530,505
531,498
532,500
533,487
534,468
535,454
536,443
537,450
538,472
539,491
540,521
541,537
542,536
543,543
544,551
545,562
546,575
547,563
548,540
549,530
550,527
551,527
552,525
553,523
554,510
555,501
556,486
557,488
558,508
559,521
560,539
561,554
562,559
563,563
564,549
565,516
566,492
567,485
568,506
569,519
570,528
571,517
572,483
573,475
574,477
575,489
576,495
577,494
578,493
579,476
580,467
581,458
582,475
583,499
584,521
585,531
586,528
587,505
588,496
589,488
590,478
591,476
592,476
593,485
594,465
595,461
596,476
597,488
598,496
599,503
600,510
601,522
602,540
603,560
604,567
605,570
606,564
607,568
608,559
609,533
610,509
611,488
612,481
613,472
614,467
615,481
616,502
617,527
618,543
619,551
620,557
621,558
622,540
623,536
624,527
625,528
626,544
627,562
628,560
629,559
630,556
631,547
632,545
633,554
634,552
635,554
636,552
637,546
638,555
639,559
640,544
641,541
642,538
643,533
644,530
645,544
646,557
647,561
648,562
649,550
650,534
651,520
652,520
653,521
654,514
655,510
656,503
657,498
658,492
659,471
660,460
661,472
662,485
663,496
664,508
665,511
666,510
667,525
668,520
669,493
670,470
671,467
672,478
673,494
674,498
675,501
676,516
677,543
678,562
679,573
680,577
681,571
682,562
683,553
684,543
685,531
686,536
687,546
688,546
689,512
690,487
691,480
692,477
693,481
694,483
695,493
696,508
697,521
698,537
699,533
700,536
701,544
702,544
703,551
704,551
705,545
706,534
707,519
708,505
709,491
710,478
711,473
712,477
713,508
714,537
715,561
716,574
717,572
718,567
719,558
720,563
721,567
722,552
723,540
724,529
725,526
726,533
727,545
728,555
729,550
730,547
731,543
732,548
733,563
734,544
735,527
736,517
737,506
738,496
739,493
740,504
741,506
742,503
743,516
744,512
745,507
746,511
747,502
748,500
749,506
750,514
751,519
752,527
753,528
754,514
755,510
756,507
757,509
758,514
759,505
760,493
761,489
762,487
763,498
764,508
765,518
766,524
767,521
768,516
769,511
770,511
771,496
772,489
773,485
774,476
775,482
776,492
777,464
778,430
779,401
780,393
781,395
782,417
783,420
784,435
785,460
786,483
787,488
788,492
789,494
790,504
791,515
792,513
793,515
794,511
795,511
796,518
797,524
798,531
799,529
800,524
801,523
802,530
803,539
804,525
805,510
806,487
807,477
808,477
809,476
810,481
811,485
812,465
813,460
814,464
815,476
816,487
817,488
818,489
819,496
820,506
821,509
822,493
823,478
824,457
825,452
826,457
827,465
828,479
829,505
830,534
831,540
832,532
833,542
834,547
835,558
836,561
837,556
838,550
839,544
840,547
841,552
842,551
843,566
844,571
845,567
846,540
847,513
848,483
849,449
850,433
851,441
852,463
853,476
854,495
855,488
856,495
857,508
858,522
859,515
860,526
861,535
862,540
863,529
864,517
865,523
866,535
867,527
868,530
869,531
870,541
871,535
872,496
873,468
874,459
875,474
876,504
877,527
878,551
879,561
880,566
881,573
882,578
883,571
884,566
885,556
886,555
887,564
888,583
889,585
890,585
891,589
892,591
893,591
894,573
895,561
896,555
897,539
898,520
899,510
900,505
901,506
902,499
903,486
904,470
905,462
906,459
907,445
908,448
909,432
910,433
911,441
912,448
913,462
914,479
915,476
916,483
917,501
918,509
919,513
920,512
921,503
922,509
923,519
924,528
925,533
926,534
927,548
928,561
929,567
930,556
931,564
932,565
933,562
934,531
935,515
936,508
937,525
938,527
939,521
940,518
941,513
942,496
943,479
944,473
945,486
946,495
947,487
948,477
949,488
950,492
951,504
952,519
953,533
954,531
955,517
956,507
957,498
958,491
959,473
960,469
961,476
962,477
963,467
964,464
965,461
966,461
967,489
968,519
969,541
970,559
971,559
972,547
973,517
974,485
975,475
976,473
977,479
978,492
979,496
980,503
981,507
982,493
983,473
984,451
985,434
986,427
987,427
988,435
989,451
990,471
991,487
992,500
993,514
994,520
995,533
996,549
997,556
998,549
999,543
1000,548
1001,547
1002,526
1003,520
1004,522
1005,523
1006,516
1007,510
1008,512
1009,508
1010,516
1011,506
1012,512
1013,534
1014,556
1015,567
1016,563
1017,553
1018,548
1019,555
1020,566
1021,574
1022,588
1023,592
1024,581
1025,559
1026,544
1027,539
1028,537
1029,513
1030,499
1031,494
1032,489
1033,485
1034,481
1035,492
1036,515
1037,516
1038,508
1039,494
1040,487
1041,475
1042,463
1043,454
1044,455
1045,466
1046,466
1047,458
1048,472
1049,467
1050,477
1051,482
1052,486
1053,476
1054,455
1055,455
1056,475
1057,488
1058,506
1059,517
1060,524
1061,526
1062,510
1063,501
1064,516
1065,523
1066,539
1067,543
1068,554
1069,572
1070,576
1071,573
1072,567
1073,558
1074,534
1075,518
1076,504
1077,496
1078,501
1079,493
1080,492
1081,511
1082,519
1083,527
1084,524
1085,522
1086,529
1087,532
1088,533
1089,533
1090,527
1091,506
1092,472
1093,458
1094,459
1095,469
1096,476
1097,473
1098,470
1099,463
1100,459
1101,457
1102,461
1103,469
1104,477
1105,489
1106,498
1107,481
1108,470
1109,463
1110,454
1111,459
1112,450
1113,446
1114,444
1115,455
1116,464
1117,475
1118,481
1119,490
1120,504
1121,505
1122,489
1123,478
1124,467
1125,455
1126,459
1127,462
1128,460
1129,455
1130,448
1131,467
1132,483
1133,490
1134,492
1135,499
1136,493
1137,481
1138,460
1139,438
1140,437
1141,450
1142,457
1143,470
1144,483
1145,492
1146,496
1147,498
1148,513
1149,535
1150,539
1151,537
1152,551
1153,551
1154,543
1155,533
1156,524
1157,539
1158,554
1159,551
1160,546
1161,543
1162,538
1163,539
1164,526
1165,517
1166,513
1167,524
1168,536
1169,545
1170,546
1171,547
1172,535
1173,523
1174,496
1175,480
1176,492
1177,501
1178,510
1179,524
1180,532
1181,543
1182,535
1183,536
1184,538
1185,547
1186,559
1187,568
1188,583
1189,582
1190,573
1191,564
1192,521
1193,502
1194,484
1195,487
1196,509
1197,520
1198,536
1199,547
1200,553
1201,547
1202,531
1203,545
1204,547
1205,527
1206,502
1207,469
1208,445
1209,439
1210,448
1211,444
1212,437
1213,445
1214,447
1215,472
1216,488
1217,494
1218,502
1219,499
1220,482
1221,475
1222,471
1223,471
1224,483
1225,499
1226,517
1227,531
1228,548
1229,543
1230,548
1231,541
1232,521
1233,517
1234,516
1235,517
1236,514
1237,512
1238,505
1239,491
1240,493
1241,503
1242,508
1243,522
1244,521
1245,517
1246,515
1247,519
1248,525
1249,531
1250,530
1251,519
1252,515
1253,520
1254,524
1255,519
1256,513
1257,502
1258,496
1259,494
1260,508
1261,508
1262,504
1263,492
1264,481
1265,485
1266,489
1267,486
1268,478
1269,465
1270,471
1271,471
1272,476
1273,491
1274,502
1275,497
1276,491
1277,475
1278,481
1279,491
1280,507
1281,521
1282,505
1283,496
1284,496
1285,496
1286,498
1287,510
1288,511
1289,515
1290,510
1291,508
1292,496
1293,494
1294,491
1295,498
1296,511
1297,508
1298,502
1299,500
1300,511
1301,524
1302,528
1303,539
1304,553
1305,569
1306,560
1307,543
1308,537
1309,531
1310,532
1311,529
1312,529
1313,536
1314,543
1315,551
1316,551
1317,546
1318,544
1319,537
1320,532
1321,513
1322,491
1323,485
1324,487
1325,492
1326,492
1327,480
1328,496
1329,507
1330,514
1331,522
1332,530
1333,535
1334,549
1335,546
1336,557
1337,565
1338,562
1339,565
1340,563
1341,566
1342,582
1343,588
1344,577
1345,561
1346,549
1347,542
1348,539
1349,522
1350,508
1351,497
1352,483
1353,482
1354,484
1355,488
1356,491
1357,489
1358,492
1359,498
1360,519
1361,537
1362,536
1363,528
1364,522
1365,522
1366,512
1367,493
1368,475
1369,464
1370,459
1371,457
1372,470
1373,474
1374,480
1375,494
1376,494
1377,483
1378,487
1379,487
1380,483
1381,482
1382,487
1383,492
1384,486
1385,489
1386,500
1387,508
1388,507
1389,503
1390,500
1391,508
1392,526
1393,537
1394,538
1395,543
1396,545
1397,531
1398,489
1399,451
1400,442
1401,442
1402,448
1403,469
1404,489
1405,508
1406,523
1407,534
1408,538
1409,518
1410,504
1411,498
1412,501
1413,505
1414,502
1415,513
1416,524
1417,524
1418,527
1419,532
1420,537
1421,544
1422,545
1423,560
1424,554
1425,551
1426,551
1427,541
1428,541
1429,543
1430,540
1431,528
1432,510
1433,505
1434,518
1435,529
1436,519
1437,512
1438,511
1439,508
1440,498
1441,504
1442,502
1443,488
1444,485
1445,500
1446,518
1447,512
1448,488
1449,458
1450,448
1451,459
1452,479
1453,496
1454,498
1455,506
1456,515
1457,515
1458,517
1459,502
1460,499
1461,503
1462,506
1463,524
1464,550
1465,565
1466,573
1467,573
1468,558
1469,540
1470,525
1471,511
1472,507
1473,516
1474,527
1475,543
1476,551
1477,558
1478,560
1479,551
1480,546
1481,536
1482,536
1483,510
1484,478
1485,443
1486,427
1487,439
1488,461
1489,459
1490,475
1491,486
1492,495
1493,498
1494,490
1495,478
1496,476
1497,481
1498,492
1499,493
1500,496
1501,501
1502,496
1503,484
1504,471
1505,477
1506,478
1507,482
1508,490
1509,499
1510,503
1511,512
1512,518
1513,517
1514,519
1515,519
1516,502
1517,483
1518,488
1519,493
1520,508
1521,524
1522,500
1523,497
1524,503
1525,503
1526,500
1527,494
1528,492
1529,486
1530,481
1531,491
1532,495
1533,501
1534,502
1535,501
1536,488
1537,463
1538,453
1539,451
1540,439
1541,435
1542,444
1543,460
1544,474
1545,486
1546,496
1547,501
1548,502
1549,503
1550,503
1551,505
1552,511
1553,527
1554,529
1555,547
1556,554
1557,540
1558,531
1559,526
1560,525
1561,527
1562,520
1563,521
1564,522
1565,519
1566,523
1567,502
1568,498
1569,491
1570,485
1571,479
1572,462
1573,463
1574,470
1575,484
1576,499
1577,501
1578,515
1579,540
1580,555
1581,559
1582,551
1583,538
1584,521
1585,524
1586,539
1587,541
1588,530
1589,501
1590,487
1591,485
1592,484
1593,487
1594,473
1595,460
1596,454
1597,456
1598,461
1599,459
1600,476
1601,498
1602,506
1603,522
1604,536
1605,533
1606,520
1607,497
1608,480
1609,482
1610,502
1611,521
1612,525
1613,528
1614,513
1615,499
1616,503
1617,499
1618,499
1619,509
1620,526
1621,535
1622,541
1623,547
1624,555
1625,561
1626,542
1627,531
1628,529
1629,520
1630,513
1631,493
1632,481
1633,482
1634,475
1635,473
1636,479
1637,491
1638,517
1639,525
1640,531
1641,528
1642,526
1643,527
1644,527
1645,540
1646,547
1647,550
1648,553
1649,543
1650,542
1651,543
1652,535
1653,526
1654,515
1655,491
1656,480
1657,488
1658,502
1659,505
1660,506
1661,500
1662,504
1663,515
1664,533
1665,556
1666,562
1667,561
1668,543
1669,532
1670,530
1671,530
1672,526
1673,521
1674,512
1675,511
1676,519
1677,523
1678,528
1679,531
1680,536
1681,541
1682,546
1683,552
1684,557
1685,571
1686,568
1687,554
1688,542
1689,537
1690,544
1691,547
1692,507
1693,488
1694,467
1695,456
1696,457
1697,459
1698,475
1699,478
1700,465
1701,462
1702,461
1703,471
1704,478
1705,483
1706,492
1707,496
1708,502
1709,507
1710,502
1711,491
1712,503
1713,527
1714,531
1715,541
1716,544
1717,547
1718,560
1719,565
1720,568
1721,569
1722,556
1723,548
1724,535
1725,524
1726,518
1727,513
1728,517
1729,509
1730,499
1731,505
1732,501
1733,501
1734,504
1735,508
1736,511
1737,508
1738,494
1739,489
1740,491
1741,500
1742,506
1743,512
1744,509
1745,505
1746,506
1747,491
1748,488
1749,494
1750,507
1751,512
1752,502
1753,496
1754,479
1755,471
1756,468
1757,477
1758,489
1759,496
1760,501
1761,503
1762,507
1763,521
1764,519
1765,518
1766,512
1767,496
1768,483
1769,478
1770,474
1771,473
1772,470
1773,479
1774,495
1775,518
1776,539
1777,537
1778,539
1779,544
1780,552
1781,560
1782,565
1783,555
1784,544
1785,544
1786,549
1787,553
1788,556
1789,558
1790,558
1791,558
1792,565
1793,555
1794,542
1795,508
1796,488
1797,488
1798,465
1799,418
1800,395
1801,399
1802,402
1803,408
1804,415
1805,435
1806,460
1807,483
1808,492
1809,494
1810,504
1811,501
1812,493
1813,492
1814,491
1815,487
1816,483
1817,479
1818,483
1819,491
1820,527
1821,539
1822,548
1823,558
1824,570
1825,565
1826,567
1827,556
1828,550
1829,549
1830,547
1831,543
1832,532
1833,517
1834,511
1835,504
1836,476
1837,463
1838,464
1839,461
1840,461
1841,475
1842,484
1843,495
1844,492
1845,487
1846,485
1847,478
1848,482
1849,484
1850,492
1851,501
1852,500
1853,506
1854,508
1855,507
1856,509
1857,502
1858,504
1859,501
1860,511
1861,518
1862,512
1863,508
1864,510
1865,517
1866,520
1867,518
1868,513
1869,508
1870,502
1871,488
1872,482
1873,492
1874,500
1875,518
1876,537
1877,552
1878,550
1879,559
1880,569
1881,579
1882,565
1883,552
1884,538
1885,540
1886,528
1887,512
1888,509
1889,510
1890,521
1891,521
1892,510
1893,496
1894,503
1895,513
1896,530
1897,529
1898,540
1899,542
1900,545
1901,543
1902,514
1903,494
1904,480
1905,486
1906,479
1907,497
1908,498
1909,511
1910,532
1911,539
1912,536
1913,539
1914,540
1915,550
1916,572
1917,576
1918,563
1919,554
1920,557
1921,553
1922,538
1923,525
1924,510
1925,496
1926,489
1927,491
1928,500
1929,504
1930,518
1931,544
1932,546
1933,533
1934,524
1935,525
1936,520
1937,507
1938,494
1939,484
1940,474
1941,463
1942,464
1943,475
1944,488
1945,498
1946,512
1947,534
1948,543
1949,544
1950,552
1951,539
1952,505
1953,488
1954,488
1955,511
1956,539
1957,565
1958,559
1959,540
1960,545
1961,555
1962,555
1963,548
1964,530
1965,514
1966,506
1967,496
1968,496
1969,501
1970,520
1971,530
1972,517
1973,508
1974,495
1975,490
1976,494
1977,501
1978,502
1979,495
1980,497
1981,503
1982,517
1983,534
1984,544
1985,548
1986,551
1987,556
1988,568
1989,578
1990,582
1991,579
1992,582
1993,579
1994,575
1995,561
1996,550
1997,540
1998,528
1999,508
