timestamp,signal
0,496
1,492
2,502
3,498
4,474
5,446
6,445
7,475
8,483
9,473
10,467
11,477
12,497
13,525
14,551
15,560
16,559
17,551
18,536
19,512
20,502
21,503
22,508
23,502
24,472
25,464
26,477
27,483
28,498
29,495
30,508
31,528
32,543
33,558
34,560
35,564
36,555
37,546
38,552
39,550
40,558
41,570
42,561
43,559
44,555
45,537
46,541
47,561
48,576
49,570
50,561
51,538
52,536
53,537
54,534
55,532
56,539
57,559
58,572
59,558
60,550
61,535
62,515
63,505
64,493
65,496
66,498
67,505
68,527
69,521
70,530
71,537
72,534
73,538
74,529
75,538
76,550
77,562
78,569
79,561
80,560
81,549
82,533
83,527
84,513
85,507
86,488
87,454
88,432
89,429
90,442
91,458
92,462
93,473
94,475
95,487
96,494
97,482
98,480
99,459
100,452
101,456
102,459
103,476
104,496
105,508
106,502
107,482
108,475
109,456
110,464
111,476
112,487
113,502
114,511
115,509
116,501
117,503
118,503
119,507
120,525
121,531
122,515
123,495
124,467
125,467
126,479
127,487
128,491
129,487
130,497
131,505
132,519
133,541
134,539
135,543
136,537
137,533
138,527
139,516
140,508
141,518
142,515
143,519
144,504
145,506
146,516
147,520
148,521
149,504
150,482
151,478
152,487
153,491
154,476
155,464
156,468
157,489
158,507
159,521
160,536
161,539
162,557
163,557
164,544
165,540
166,534
167,532
168,536
169,540
170,551
171,551
172,540
173,535
174,510
175,504
176,514
177,539
178,534
179,523
180,521
181,518
182,512
183,520
184,508
185,496
186,504
187,517
188,535
189,535
190,548
191,554
192,554
193,561
194,560
195,573
196,572
197,570
198,569
199,558
200,546
201,535
202,520
203,499
204,472
205,449
206,453
207,461
208,473
209,468
210,464
211,454
212,446
213,455
214,455
215,478
216,496
217,511
218,515
219,510
220,519
221,533
222,558
223,557
224,559
225,563
226,557
227,539
228,534
229,527
230,533
231,543
232,535
233,527
234,529
235,554
236,583
237,599
238,601
239,597
240,606
241,615
242,602
243,584
244,564
245,561
246,558
247,544
248,524
249,494
250,479
251,466
252,462
253,460
254,459
255,479
256,498
257,506
258,511
259,515
260,533
261,558
262,559
263,553
264,536
265,541
266,555
267,555
268,547
269,538
270,536
271,533
272,515
273,499
274,484
275,483
276,495
277,508
278,524
279,524
280,532
281,519
282,528
283,518
284,484
285,440
286,423
287,438
288,444
289,448
290,455
291,453
292,461
293,480
294,484
295,484
296,481
297,464
298,448
299,437
300,447
301,465
302,475
303,489
304,495
305,518
306,534
307,552
308,536
309,519
310,527
311,531
312,517
313,498
314,480
315,479
316,478
317,478
318,487
319,473
320,470
321,470
322,466
323,470
324,471
325,468
326,461
327,465
328,480
329,488
330,489
331,482
332,486
333,476
334,468
335,473
336,496
337,523
338,536
339,551
340,580
341,592
342,591
343,594
344,570
345,553
346,543
347,512
348,480
349,452
350,458
351,463
352,473
353,485
354,480
355,496
356,515
357,516
358,515
359,508
360,528
361,546
362,559
363,567
364,546
365,553
366,560
367,551
368,543
369,526
370,524
371,528
372,535
373,539
374,529
375,537
376,559
377,554
378,537
379,504
380,495
381,490
382,478
383,472
384,468
385,483
386,495
387,505
388,526
389,526
390,536
391,546
392,540
393,534
394,523
395,531
396,547
397,562
398,569
399,579
400,595
401,597
402,590
403,588
404,568
405,573
406,544
407,524
408,502
409,475
410,469
411,476
412,498
413,500
414,486
415,458
416,453
417,469
418,492
419,493
420,503
421,523
422,536
423,555
424,547
425,540
426,536
427,519
428,505
429,489
430,490
431,496
432,488
433,487
434,480
435,474
436,473
437,476
438,483
439,459
440,459
441,470
442,482
443,491
444,470
445,466
446,455
447,441
448,432
449,419
450,414
451,401
452,393
453,414
454,419
455,444
456,455
457,476
458,489
459,493
460,488
461,481
462,487
463,486
464,472
465,477
466,487
467,496
468,500
469,491
470,491
471,501
472,507
473,523
474,532
475,540
476,539
477,526
478,521
479,515
480,530
481,543
482,552
483,558
484,545
485,542
486,537
487,522
488,522
489,510
490,507
491,517
492,526
493,538
494,540
495,554
496,554
497,552
498,544
499,528
500,516
501,511
502,506
503,502
504,499
505,508
506,517
507,516
508,510
509,500
510,518
511,525
512,515
513,513
514,504
515,510
516,523
517,521
518,518
519,509
520,530
521,559
522,574
523,575
524,560
525,539
526,517
527,506
528,489
529,457
530,441
531,435
532,435
533,423
534,411
535,405
536,408
537,420
538,436
539,429
540,412
541,405
542,412
543,418
544,414
545,421
546,431
547,460
548,465
549,440
550,432
551,441
552,455
553,463
554,469
555,500
556,505
557,510
558,506
559,483
560,486
561,499
562,516
563,527
564,525
565,522
566,513
567,497
568,488
569,469
570,472
571,462
572,468
573,483
574,472
575,473
576,479
577,481
578,495
579,493
580,504
581,515
582,510
583,516
584,512
585,517
586,510
587,489
588,474
589,469
590,486
591,507
592,513
593,529
594,534
595,548
596,547
597,545
598,551
599,534
600,537
601,552
602,563
603,581
604,594
605,599
606,605
607,592
608,568
609,537
610,535
611,530
612,521
613,515
614,493
615,476
616,471
617,469
618,480
619,470
620,476
621,483
622,476
623,479
624,471
625,475
626,483
627,489
628,508
629,512
630,537
631,555
632,551
633,539
634,519
635,513
636,505
637,499
638,505
639,522
640,550
641,570
642,582
643,579
644,564
645,564
646,555
647,536
648,537
649,540
650,555
651,563
652,559
653,559
654,544
655,549
656,556
657,553
658,563
659,548
660,548
661,553
662,562
663,569
664,569
665,578
666,594
667,601
668,600
669,575
670,562
671,554
672,539
673,526
674,529
675,540
676,536
677,530
678,524
679,507
680,509
681,515
682,503
683,503
684,490
685,490
686,494
687,506
688,512
689,506
690,507
691,515
692,518
693,531
694,536
695,552
696,562
697,563
698,565
699,558
700,542
701,532
702,536
703,547
704,541
705,531
706,514
707,489
708,472
709,455
710,469
711,486
712,479
713,479
714,452
715,462
716,471
717,468
718,464
719,464
720,490
721,514
722,514
723,523
724,542
725,563
726,574
727,565
728,551
729,531
730,533
731,543
732,536
733,529
734,493
735,476
736,472
737,477
738,485
739,478
740,472
741,480
742,483
743,484
744,475
745,464
746,451
747,432
748,428
749,415
750,427
751,442
752,455
753,486
754,507
755,528
756,531
757,534
758,531
759,517
760,502
761,496
762,502
763,489
764,478
765,462
766,480
767,503
768,507
769,495
770,497
771,505
772,506
773,506
774,483
775,475
776,479
777,475
778,465
779,431
780,410
781,405
782,406
783,424
784,432
785,458
786,484
787,492
788,497
789,493
790,504
791,511
792,500
793,492
794,486
795,497
796,508
797,519
798,529
799,517
800,532
801,558
802,575
803,591
804,585
805,580
806,571
807,557
808,551
809,534
810,528
811,527
812,525
813,523
814,526
815,545
816,552
817,540
818,542
819,522
820,514
821,525
822,532
823,531
824,521
825,516
826,514
827,526
828,532
829,517
830,505
831,508
832,520
833,511
834,490
835,468
836,463
837,487
838,508
839,516
840,512
841,510
842,536
843,540
844,526
845,506
846,489
847,487
848,494
849,487
850,489
851,503
852,507
853,517
854,523
855,543
856,549
857,535
858,506
859,476
860,467
861,471
862,474
863,489
864,490
865,500
866,499
867,493
868,500
869,495
870,512
871,521
872,526
873,544
874,543
875,551
876,548
877,537
878,543
879,537
880,537
881,530
882,509
883,495
884,497
885,515
886,529
887,536
888,545
889,543
890,543
891,531
892,513
893,508
894,492
895,494
896,509
897,515
898,523
899,516
900,510
901,520
902,515
903,493
904,465
905,444
906,438
907,440
908,475
909,479
910,501
911,504
912,501
913,511
914,508
915,509
916,510
917,521
918,539
919,558
920,579
921,582
922,578
923,573
924,556
925,536
926,497
927,486
928,480
929,465
930,470
931,484
932,487
933,476
934,462
935,456
936,459
937,459
938,468
939,471
940,485
941,499
942,505
943,507
944,492
945,496
946,506
947,516
948,519
949,488
950,485
951,490
952,497
953,493
954,462
955,457
956,454
957,440
958,424
959,419
960,444
961,467
962,466
963,454
964,440
965,449
966,453
967,453
968,459
969,463
970,472
971,464
972,455
973,441
974,432
975,453
976,467
977,453
978,457
979,456
980,472
981,492
982,504
983,519
984,529
985,543
986,552
987,553
988,559
989,548
990,556
991,557
992,539
993,528
994,512
995,518
996,537
997,554
998,567
999,573
1000,565
1001,554
1002,552
1003,527
1004,494
1005,473
1006,471
1007,493
1008,500
1009,476
1010,447
1011,433
1012,443
1013,465
1014,462
1015,478
1016,478
1017,459
1018,445
1019,441
1020,451
1021,487
1022,515
1023,534
1024,526
1025,519
1026,516
1027,516
1028,525
1029,518
1030,524
1031,526
1032,535
1033,544
1034,544
1035,554
1036,559
1037,565
1038,565
1039,545
1040,546
1041,562
1042,567
1043,572
1044,560
1045,546
1046,528
1047,526
1048,534
1049,533
1050,531
1051,533
1052,535
1053,520
1054,494
1055,470
1056,459
1057,478
1058,490
1059,501
1060,512
1061,516
1062,499
1063,494
1064,495
1065,505
1066,514
1067,527
1068,537
1069,538
1070,550
1071,561
1072,575
1073,581
1074,572
1075,568
1076,567
1077,568
1078,563
1079,548
1080,560
1081,567
1082,558
1083,550
1084,521
1085,512
1086,510
1087,508
1088,509
1089,520
1090,537
1091,550
1092,546
1093,545
1094,545
1095,571
1096,580
1097,593
1098,594
1099,579
1100,561
1101,552
1102,544
1103,533
1104,518
1105,520
1106,540
1107,555
1108,564
1109,555
1110,559
1111,564
1112,554
1113,555
1114,537
1115,526
1116,523
1117,523
1118,528
1119,515
1120,521
1121,534
1122,546
1123,555
1124,548
1125,534
1126,527
1127,533
1128,527
1129,499
1130,481
1131,481
1132,494
1133,488
1134,477
1135,460
1136,451
1137,464
1138,483
1139,495
1140,495
1141,503
1142,521
1143,531
1144,523
1145,503
1146,473
1147,460
1148,438
1149,420
1150,407
1151,408
1152,414
1153,425
1154,410
1155,412
1156,425
1157,431
1158,439
1159,435
1160,459
1161,484
1162,508
1163,529
1164,512
1165,504
1166,503
1167,499
1168,494
1169,472
1170,470
1171,477
1172,467
1173,462
1174,430
1175,441
1176,454
1177,488
1178,523
1179,552
1180,561
1181,565
1182,555
1183,552
1184,554
1185,572
1186,579
1187,577
1188,565
1189,552
1190,547
1191,545
1192,529
1193,514
1194,502
1195,520
1196,535
1197,551
1198,568
1199,562
1200,550
1201,534
1202,510
1203,487
1204,456
1205,440
1206,449
1207,453
1208,447
1209,429
1210,432
1211,451
1212,479
1213,505
1214,524
1215,560
1216,594
1217,603
1218,611
1219,605
1220,603
1221,599
1222,584
1223,571
1224,550
1225,532
1226,527
1227,524
1228,519
1229,509
1230,523
1231,534
1232,520
1233,499
1234,488
1235,493
1236,504
1237,504
1238,503
1239,492
1240,494
1241,498
1242,489
1243,476
1244,446
1245,435
1246,446
1247,449
1248,463
1249,470
1250,478
1251,495
1252,518
1253,527
1254,513
1255,523
1256,531
1257,524
1258,519
1259,507
1260,518
1261,523
1262,512
1263,502
1264,490
1265,484
1266,486
1267,502
1268,523
1269,523
1270,508
1271,497
1272,505
1273,518
1274,511
1275,492
1276,488
1277,501
1278,518
1279,514
1280,503
1281,487
1282,490
1283,496
1284,503
1285,519
1286,528
1287,528
1288,515
1289,490
1290,472
1291,481
1292,492
1293,506
1294,493
1295,508
1296,532
1297,535
1298,542
1299,531
1300,536
1301,542
1302,534
1303,532
1304,524
1305,535
1306,559
1307,579
1308,594
1309,588
1310,594
1311,608
1312,610
1313,607
1314,584
1315,560
1316,551
1317,549
1318,557
1319,551
1320,540
1321,528
1322,498
1323,487
1324,489
1325,483
1326,480
1327,488
1328,478
1329,461
1330,462
1331,472
1332,494
1333,508
1334,491
1335,489
1336,500
1337,510
1338,517
1339,518
1340,519
1341,515
1342,494
1343,486
1344,465
1345,463
1346,472
1347,491
1348,509
1349,511
1350,517
1351,523
1352,524
1353,532
1354,526
1355,526
1356,525
1357,518
1358,510
1359,492
1360,490
1361,493
1362,474
1363,461
1364,457
1365,479
1366,501
1367,506
1368,513
1369,512
1370,523
1371,531
1372,517
1373,503
1374,474
1375,475
1376,475
1377,473
1378,486
1379,482
1380,486
1381,488
1382,480
1383,487
1384,490
1385,501
1386,505
1387,499
1388,505
1389,499
1390,501
1391,512
1392,510
1393,505
1394,472
1395,465
1396,468
1397,461
1398,453
1399,446
1400,471
1401,504
1402,514
1403,526
1404,518
1405,508
1406,497
1407,489
1408,487
1409,475
1410,482
1411,496
1412,489
1413,490
1414,479
1415,481
1416,488
1417,502
1418,516
1419,513
1420,519
1421,538
1422,560
1423,574
1424,579
1425,586
1426,585
1427,584
1428,557
1429,526
1430,512
1431,506
1432,520
1433,517
1434,497
1435,468
1436,457
1437,461
1438,447
1439,428
1440,420
1441,431
1442,446
1443,460
1444,462
1445,466
1446,476
1447,482
1448,476
1449,441
1450,431
1451,431
1452,419
1453,405
1454,387
1455,419
1456,455
1457,487
1458,520
1459,537
1460,551
1461,564
1462,557
1463,550
1464,536
1465,542
1466,543
1467,539
1468,537
1469,521
1470,526
1471,531
1472,527
1473,524
1474,504
1475,501
1476,517
1477,541
1478,556
1479,557
1480,566
1481,566
1482,546
1483,530
1484,516
1485,514
1486,503
1487,495
1488,491
1489,489
1490,515
1491,525
1492,513
1493,507
1494,499
1495,508
1496,532
1497,542
1498,543
1499,529
1500,528
1501,543
1502,547
1503,531
1504,505
1505,512
1506,526
1507,527
1508,526
1509,524
1510,548
1511,555
1512,539
1513,529
1514,522
1515,527
1516,533
1517,531
1518,528
1519,507
1520,487
1521,491
1522,504
1523,496
1524,482
1525,477
1526,482
1527,492
1528,494
1529,490
1530,495
1531,510
1532,505
1533,513
1534,512
1535,511
1536,500
1537,478
1538,457
1539,438
1540,444
1541,460
1542,472
1543,482
1544,485
1545,493
1546,504
1547,511
1548,516
1549,513
1550,513
1551,503
1552,493
1553,492
1554,474
1555,485
1556,498
1557,505
1558,494
1559,487
1560,502
1561,521
1562,538
1563,541
1564,545
1565,559
1566,571
1567,580
1568,588
1569,584
1570,563
1571,547
1572,543
1573,533
1574,506
1575,477
1576,469
1577,483
1578,478
1579,474
1580,492
1581,509
1582,515
1583,510
1584,497
1585,508
1586,527
1587,530
1588,533
1589,515
1590,515
1591,528
1592,516
1593,514
1594,497
1595,495
1596,502
1597,500
1598,508
1599,504
1600,520
1601,538
1602,539
1603,540
1604,533
1605,534
1606,527
1607,504
1608,484
1609,478
1610,490
1611,504
1612,517
1613,527
1614,528
1615,537
1616,542
1617,523
1618,512
1619,502
1620,508
1621,512
1622,501
1623,506
1624,515
1625,524
1626,527
1627,532
1628,547
1629,541
1630,549
1631,549
1632,534
1633,516
1634,480
1635,460
1636,461
1637,469
1638,481
1639,496
1640,527
1641,547
1642,557
1643,564
1644,551
1645,536
1646,524
1647,524
1648,524
1649,522
1650,505
1651,495
1652,495
1653,479
1654,464
1655,463
1656,468
1657,486
1658,503
1659,522
1660,537
1661,553
1662,566
1663,571
1664,547
1665,540
1666,540
1667,526
1668,523
1669,510
1670,499
1671,499
1672,507
1673,517
1674,494
1675,482
1676,484
1677,492
1678,499
1679,488
1680,504
1681,519
1682,527
1683,530
1684,515
1685,515
1686,521
1687,534
1688,551
1689,542
1690,530
1691,521
1692,526
1693,535
1694,528
1695,525
1696,521
1697,510
1698,511
1699,515
1700,534
1701,542
1702,538
1703,524
1704,490
1705,482
1706,494
1707,505
1708,510
1709,498
1710,507
1711,510
1712,515
1713,520
1714,513
1715,523
1716,536
1717,548
1718,557
1719,545
1720,545
1721,559
1722,548
1723,554
1724,547
1725,551
1726,558
1727,545
1728,542
1729,551
1730,555
1731,550
1732,524
1733,514
1734,502
1735,515
1736,518
1737,500
1738,490
1739,481
1740,489
1741,502
1742,493
1743,504
1744,482
1745,469
1746,462
1747,441
1748,423
1749,410
1750,427
1751,454
1752,472
1753,492
1754,501
1755,512
1756,506
1757,502
1758,501
1759,512
1760,548
1761,574
1762,574
1763,545
1764,498
1765,472
1766,467
1767,471
1768,480
1769,472
1770,472
1771,482
1772,493
1773,508
1774,508
1775,515
1776,528
1777,537
1778,556
1779,564
1780,573
1781,565
1782,563
1783,568
1784,554
1785,550
1786,549
1787,539
1788,543
1789,542
1790,545
1791,537
1792,515
1793,492
1794,477
1795,481
1796,495
1797,487
1798,486
1799,496
1800,522
1801,524
1802,510
1803,482
1804,455
1805,450
1806,459
1807,468
1808,479
1809,468
1810,468
1811,495
1812,494
1813,499
1814,484
1815,479
1816,477
1817,474
1818,488
1819,476
1820,476
1821,489
1822,503
1823,516
1824,521
1825,536
1826,553
1827,554
1828,556
1829,549
1830,532
1831,513
1832,529
1833,543
1834,535
1835,524
1836,508
1837,503
1838,500
1839,498
1840,501
1841,506
1842,517
1843,510
1844,492
1845,500
1846,498
1847,502
1848,508
1849,500
1850,508
1851,510
1852,505
1853,502
1854,504
1855,508
1856,495
1857,471
1858,455
1859,441
1860,443
1861,456
1862,471
1863,486
1864,488
1865,506
1866,523
1867,521
1868,520
1869,507
1870,504
1871,499
1872,493
1873,496
1874,485
1875,485
1876,500
1877,513
1878,522
1879,518
1880,529
1881,539
1882,541
1883,556
1884,550
1885,530
1886,518
1887,523
1888,511
1889,478
1890,467
1891,460
1892,465
1893,454
1894,426
1895,412
1896,400
1897,400
1898,410
1899,424
1900,463
1901,500
1902,534
1903,555
1904,545
1905,543
1906,547
1907,568
1908,574
1909,571
1910,572
1911,566
1912,547
1913,544
1914,539
1915,541
1916,535
1917,514
1918,505
1919,495
1920,513
1921,526
1922,532
1923,537
1924,522
1925,522
1926,530
1927,536
1928,539
1929,542
1930,562
1931,578
1932,581
1933,584
1934,588
1935,590
1936,577
1937,547
1938,512
1939,487
1940,496
1941,504
1942,496
1943,481
1944,466
1945,473
1946,489
1947,499
1948,514
1949,509
1950,505
1951,497
1952,486
1953,485
1954,478
1955,482
1956,491
1957,497
1958,508
1959,511
1960,534
1961,546
1962,543
1963,543
1964,536
1965,529
1966,534
1967,524
1968,531
1969,529
1970,534
1971,519
1972,491
1973,467
1974,446
1975,448
1976,467
1977,485
1978,512
1979,528
1980,546
1981,565
1982,562
1983,556
1984,550
1985,565
1986,591
1987,571
1988,553
1989,520
1990,514
1991,503
1992,499
1993,503
1994,502
1995,514
1996,520
1997,532
1998,546
1999,540
