timestamp,signal
0,504
1,503
2,502
3,503
4,502
5,504
6,505
7,508
8,510
9,507
10,504
11,499
12,499
13,503
14,508
15,509
16,503
17,499
18,499
19,499
20,498
21,498
22,497
23,494
24,492
25,491
26,491
27,491
28,489
29,488
30,492
31,496
32,504
33,509
34,515
35,520
36,525
37,532
38,543
39,553
40,564
41,579
42,591
43,604
44,620
45,634
46,643
47,654
48,665
49,681
50,694
51,704
52,713
53,721
54,726
55,728
56,728
57,725
58,722
59,713
60,707
61,699
62,688
63,671
64,653
65,636
66,616
67,601
68,585
69,568
70,549
71,528
72,509
73,489
74,473
75,463
76,448
77,432
78,417
79,408
80,404
81,404
82,404
83,402
84,399
85,400
86,404
87,408
88,407
89,409
90,411
91,409
92,412
93,414
94,421
95,427
96,432
97,440
98,448
99,452
100,457
101,460
102,463
103,463
104,463
105,463
106,462
107,464
108,467
109,470
110,472
111,475
112,476
113,477
114,477
115,479
116,480
117,483
118,487
119,488
120,489
121,486
122,483
123,484
124,486
125,487
126,492
127,496
128,495
129,492
130,491
131,493
132,494
133,489
134,489
135,491
136,491
137,495
138,498
139,499
140,500
141,500
142,499
143,499
144,497
145,494
146,490
147,492
148,498
149,504
150,506
151,505
152,503
153,502
154,501
155,503
156,504
157,505
158,504
159,501
160,502
161,506
162,505
163,505
164,507
165,510
166,510
167,508
168,507
169,507
170,504
171,503
172,504
173,507
174,507
175,508
176,509
177,517
178,519
179,522
180,524
181,523
182,524
183,521
184,520
185,522
186,519
187,520
188,518
189,515
190,513
191,512
192,514
193,517
194,519
195,521
196,521
197,523
198,525
199,529
200,532
201,533
202,533
203,535
204,537
205,539
206,533
207,529
208,529
209,531
210,533
211,533
212,533
213,536
214,537
215,539
216,538
217,541
218,549
219,555
220,558
221,557
222,557
223,561
224,561
225,560
226,557
227,557
228,558
229,560
230,564
231,564
232,567
233,570
234,565
235,565
236,568
237,569
238,567
239,568
240,575
241,582
242,585
243,585
244,584
245,584
246,583
247,584
248,587
249,590
250,593
251,592
252,590
253,589
254,588
255,587
256,587
257,591
258,592
259,590
260,587
261,583
262,580
263,579
264,577
265,575
266,573
267,574
268,574
269,571
270,568
271,568
272,569
273,566
274,564
275,563
276,562
277,559
278,553
279,550
280,550
281,549
282,548
283,544
284,541
285,540
286,536
287,532
288,526
289,522
290,521
291,518
292,515
293,515
294,514
295,514
296,514
297,511
298,504
299,500
300,500
301,498
302,495
303,492
304,489
305,492
306,491
307,490
308,488
309,485
310,483
311,479
312,478
313,475
314,471
315,470
316,467
317,467
318,467
319,468
320,468
321,467
322,467
323,463
324,460
325,459
326,454
327,453
328,454
329,453
330,457
331,459
332,461
333,460
334,458
335,457
336,455
337,455
338,455
339,452
340,451
341,448
342,449
343,449
344,448
345,449
346,449
347,449
348,449
349,448
350,452
351,451
352,451
353,451
354,453
355,455
356,457
357,459
358,457
359,454
360,455
361,455
362,455
363,451
364,450
365,453
366,452
367,451
368,451
369,450
370,450
371,451
372,455
373,456
374,458
375,459
376,457
377,458
378,459
379,459
380,463
381,464
382,464
383,464
384,468
385,470
386,470
387,470
388,470
389,469
390,472
391,478
392,480
393,480
394,478
395,476
396,475
397,474
398,474
399,472
400,472
401,471
402,470
403,473
404,476
405,478
406,475
407,471
408,467
409,467
410,467
411,469
412,472
413,473
414,479
415,483
416,485
417,488
418,486
419,478
420,477
421,478
422,480
423,484
424,489
425,491
426,488
427,486
428,486
429,486
430,485
431,484
432,482
433,481
434,479
435,480
436,480
437,478
438,480
439,484
440,487
441,489
442,493
443,495
444,494
445,495
446,494
447,494
448,493
449,493
450,497
451,496
452,494
453,492
454,487
455,488
456,488
457,487
458,484
459,481
460,485
461,488
462,485
463,484
464,483
465,483
466,489
467,493
468,494
469,494
470,494
471,493
472,494
473,492
474,490
475,490
476,491
477,491
478,491
479,488
480,487
481,487
482,491
483,489
484,487
485,487
486,486
487,486
488,485
489,486
490,487
491,486
492,488
493,490
494,489
495,489
496,489
497,488
498,488
499,489
500,492
501,493
502,492
503,491
504,493
505,496
506,500
507,502
508,499
509,496
510,496
511,495
512,493
513,493
514,496
515,497
516,498
517,497
518,499
519,500
520,501
521,500
522,501
523,501
524,502
525,503
526,501
527,499
528,496
529,490
530,492
531,494
532,495
533,498
534,499
535,496
536,492
537,492
538,492
539,490
540,487
541,487
542,491
543,495
544,498
545,501
546,499
547,497
548,499
549,499
550,497
551,496
552,497
553,498
554,500
555,498
556,496
557,495
558,494
559,497
560,501
561,500
562,499
563,499
564,502
565,506
566,505
567,508
568,509
569,508
570,514
571,513
572,512
573,511
574,510
575,507
576,507
577,507
578,506
579,505
580,505
581,503
582,505
583,506
584,502
585,501
586,503
587,507
588,511
589,512
590,515
591,517
592,519
593,519
594,518
595,517
596,517
597,520
598,519
599,520
600,524
601,523
602,521
603,520
604,517
605,518
606,515
607,516
608,518
609,516
610,518
611,515
612,518
613,518
614,516
615,518
616,517
617,517
618,513
619,507
620,504
621,501
622,499
623,497
624,496
625,496
626,495
627,494
628,491
629,488
630,491
631,497
632,502
633,502
634,500
635,498
636,495
637,493
638,493
639,494
640,496
641,495
642,493
643,493
644,494
645,495
646,493
647,494
648,493
649,492
650,496
651,497
652,493
653,489
654,481
655,482
656,486
657,493
658,496
659,493
660,495
661,498
662,498
663,496
664,494
665,496
666,498
667,498
668,499
669,500
670,500
671,497
672,495
673,494
674,493
675,496
676,496
677,496
678,497
679,496
680,493
681,492
682,493
683,491
684,489
685,488
686,483
687,485
688,487
689,488
690,491
691,490
692,491
693,495
694,501
695,508
696,513
697,519
698,526
699,537
700,553
701,563
702,570
703,581
704,594
705,607
706,617
707,630
708,642
709,655
710,670
711,683
712,696
713,709
714,719
715,732
716,739
717,741
718,739
719,735
720,728
721,716
722,706
723,696
724,683
725,670
726,652
727,634
728,617
729,595
730,573
731,549
732,526
733,507
734,487
735,466
736,449
737,434
738,419
739,406
740,397
741,391
742,389
743,385
744,383
745,382
746,379
747,378
748,376
749,377
750,383
751,388
752,396
753,399
754,403
755,406
756,409
757,412
758,414
759,424
760,433
761,437
762,442
763,447
764,451
765,455
766,460
767,461
768,463
769,469
770,474
771,476
772,479
773,478
774,475
775,475
776,473
777,474
778,475
779,473
780,476
781,480
782,483
783,483
784,480
785,480
786,483
787,486
788,487
789,488
790,488
791,486
792,483
793,481
794,482
795,485
796,487
797,491
798,494
799,494
800,495
801,496
802,499
803,496
804,493
805,493
806,492
807,489
808,488
809,489
810,493
811,497
812,499
813,499
814,500
815,498
816,496
817,493
818,489
819,487
820,491
821,496
822,498
823,498
824,498
825,499
826,497
827,498
828,498
829,498
830,500
831,499
832,501
833,498
834,497
835,500
836,501
837,504
838,506
839,507
840,510
841,510
842,508
843,507
844,508
845,511
846,511
847,512
848,515
849,517
850,521
851,523
852,521
853,515
854,514
855,516
856,516
857,516
858,515
859,512
860,511
861,512
862,513
863,515
864,517
865,518
866,517
867,516
868,517
869,518
870,520
871,521
872,523
873,523
874,527
875,529
876,527
877,527
878,529
879,531
880,535
881,536
882,537
883,540
884,546
885,554
886,556
887,561
888,562
889,563
890,568
891,571
892,569
893,568
894,567
895,569
896,569
897,567
898,567
899,570
900,575
901,576
902,574
903,568
904,568
905,567
906,569
907,574
908,577
909,579
910,580
911,579
912,580
913,582
914,582
915,584
916,585
917,583
918,583
919,584
920,586
921,583
922,582
923,583
924,582
925,583
926,579
927,577
928,573
929,569
930,569
931,566
932,567
933,565
934,562
935,561
936,557
937,556
938,556
939,556
940,557
941,555
942,549
943,544
944,543
945,543
946,540
947,538
948,537
949,534
950,531
951,530
952,531
953,529
954,527
955,526
956,524
957,521
958,516
959,508
960,504
961,501
962,497
963,493
964,487
965,487
966,485
967,488
968,487
969,480
970,477
971,479
972,484
973,486
974,484
975,482
976,476
977,472
978,470
979,468
980,470
981,469
982,463
983,459
984,459
985,455
986,452
987,454
988,451
989,448
990,448
991,448
992,449
993,450
994,451
995,451
996,451
997,451
998,451
999,450
1000,449
1001,446
1002,444
1003,443
1004,444
1005,445
1006,441
1007,437
1008,436
1009,437
1010,438
1011,435
1012,432
1013,430
1014,430
1015,434
1016,436
1017,440
1018,441
1019,440
1020,439
1021,441
1022,448
1023,451
1024,450
1025,448
1026,451
1027,453
1028,451
1029,453
1030,454
1031,452
1032,452
1033,449
1034,448
1035,449
1036,452
1037,454
1038,455
1039,453
1040,454
1041,457
1042,460
1043,460
1044,461
1045,463
1046,464
1047,464
1048,463
1049,460
1050,459
1051,458
1052,463
1053,464
1054,463
1055,465
1056,467
1057,469
1058,471
1059,469
1060,466
1061,464
1062,466
1063,464
1064,462
1065,463
1066,464
1067,466
1068,466
1069,467
1070,469
1071,469
1072,471
1073,471
1074,472
1075,472
1076,471
1077,468
1078,467
1079,469
1080,473
1081,474
1082,477
1083,478
1084,475
1085,477
1086,478
1087,478
1088,478
1089,476
1090,475
1091,475
1092,475
1093,471
1094,472
1095,474
1096,475
1097,477
1098,481
1099,483
1100,483
1101,480
1102,481
1103,482
1104,482
1105,481
1106,482
1107,483
1108,484
1109,487
1110,486
1111,483
1112,483
1113,483
1114,484
1115,486
1116,487
1117,486
1118,484
1119,484
1120,486
1121,487
1122,487
1123,486
1124,486
1125,487
1126,483
1127,480
1128,480
1129,481
1130,485
1131,483
1132,482
1133,481
1134,483
1135,483
1136,482
1137,484
1138,488
1139,489
1140,487
1141,483
1142,479
1143,477
1144,479
1145,483
1146,483
1147,481
1148,480
1149,481
1150,483
1151,487
1152,490
1153,492
1154,493
1155,493
1156,491
1157,488
1158,485
1159,481
1160,481
1161,482
1162,483
1163,484
1164,486
1165,487
1166,485
1167,485
1168,487
1169,488
1170,494
1171,497
1172,499
1173,498
1174,501
1175,502
1176,501
1177,498
1178,497
1179,497
1180,501
1181,501
1182,496
1183,491
1184,488
1185,489
1186,491
1187,491
1188,488
1189,487
1190,486
1191,485
1192,487
1193,488
1194,488
1195,490
1196,492
1197,492
1198,492
1199,491
1200,491
1201,489
1202,488
1203,491
1204,493
1205,496
1206,497
1207,497
1208,497
1209,498
1210,496
1211,494
1212,495
1213,495
1214,495
1215,497
1216,498
1217,499
1218,500
1219,499
1220,498
1221,497
1222,495
1223,496
1224,496
1225,499
1226,499
1227,501
1228,500
1229,499
1230,500
1231,497
1232,496
1233,500
1234,502
1235,503
1236,504
1237,507
1238,510
1239,508
1240,505
1241,503
1242,500
1243,497
1244,497
1245,497
1246,496
1247,497
1248,500
1249,502
1250,500
1251,498
1252,498
1253,499
1254,504
1255,510
1256,510
1257,510
1258,512
1259,513
1260,516
1261,515
1262,515
1263,512
1264,509
1265,507
1266,504
1267,505
1268,508
1269,510
1270,509
1271,508
1272,509
1273,505
1274,504
1275,506
1276,506
1277,505
1278,506
1279,504
1280,505
1281,508
1282,511
1283,515
1284,518
1285,519
1286,517
1287,516
1288,519
1289,521
1290,520
1291,518
1292,518
1293,518
1294,516
1295,516
1296,518
1297,519
1298,518
1299,520
1300,523
1301,522
1302,521
1303,519
1304,514
1305,512
1306,511
1307,512
1308,511
1309,507
1310,508
1311,508
1312,509
1313,508
1314,508
1315,508
1316,508
1317,507
1318,504
1319,503
1320,501
1321,500
1322,499
1323,498
1324,499
1325,502
1326,503
1327,502
1328,501
1329,502
1330,500
1331,495
1332,492
1333,492
1334,492
1335,498
1336,500
1337,504
1338,506
1339,504
1340,505
1341,503
1342,504
1343,501
1344,496
1345,496
1346,495
1347,496
1348,497
1349,499
1350,502
1351,500
1352,499
1353,494
1354,492
1355,497
1356,500
1357,500
1358,497
1359,495
1360,496
1361,496
1362,498
1363,500
1364,501
1365,503
1366,503
1367,503
1368,505
1369,503
1370,497
1371,489
1372,483
1373,484
1374,487
1375,487
1376,488
1377,494
1378,501
1379,504
1380,506
1381,508
1382,509
1383,513
1384,515
1385,519
1386,525
1387,531
1388,540
1389,550
1390,563
1391,574
1392,585
1393,597
1394,606
1395,620
1396,637
1397,652
1398,665
1399,680
1400,696
1401,707
1402,719
1403,728
1404,734
1405,742
1406,747
1407,746
1408,739
1409,731
1410,723
1411,712
1412,702
1413,687
1414,670
1415,651
1416,630
1417,611
1418,591
1419,575
1420,560
1421,540
1422,520
1423,501
1424,479
1425,459
1426,438
1427,417
1428,399
1429,383
1430,370
1431,359
1432,355
1433,357
1434,363
1435,368
1436,373
1437,377
1438,381
1439,386
1440,391
1441,396
1442,403
1443,408
1444,411
1445,416
1446,421
1447,429
1448,435
1449,441
1450,449
1451,454
1452,455
1453,455
1454,457
1455,461
1456,466
1457,470
1458,468
1459,464
1460,463
1461,464
1462,464
1463,463
1464,462
1465,465
1466,467
1467,465
1468,466
1469,465
1470,467
1471,470
1472,476
1473,481
1474,483
1475,485
1476,491
1477,495
1478,496
1479,496
1480,496
1481,496
1482,497
1483,498
1484,498
1485,500
1486,497
1487,493
1488,494
1489,493
1490,496
1491,496
1492,496
1493,496
1494,494
1495,493
1496,490
1497,490
1498,491
1499,488
1500,490
1501,492
1502,494
1503,493
1504,492
1505,491
1506,492
1507,494
1508,496
1509,499
1510,501
1511,501
1512,505
1513,513
1514,514
1515,511
1516,508
1517,506
1518,506
1519,510
1520,511
1521,508
1522,509
1523,508
1524,508
1525,509
1526,513
1527,519
1528,521
1529,522
1530,524
1531,521
1532,516
1533,508
1534,505
1535,505
1536,502
1537,500
1538,501
1539,504
1540,509
1541,516
1542,521
1543,522
1544,520
1545,520
1546,521
1547,522
1548,524
1549,527
1550,527
1551,525
1552,526
1553,526
1554,523
1555,524
1556,526
1557,527
1558,526
1559,525
1560,525
1561,522
1562,525
1563,527
1564,532
1565,540
1566,544
1567,550
1568,555
1569,557
1570,558
1571,557
1572,557
1573,555
1574,556
1575,559
1576,559
1577,558
1578,557
1579,557
1580,559
1581,560
1582,561
1583,562
1584,563
1585,569
1586,574
1587,575
1588,573
1589,575
1590,579
1591,580
1592,580
1593,576
1594,574
1595,575
1596,573
1597,572
1598,572
1599,575
1600,577
1601,577
1602,579
1603,582
1604,583
1605,587
1606,587
1607,587
1608,587
1609,587
1610,589
1611,590
1612,590
1613,585
1614,580
1615,580
1616,579
1617,577
1618,575
1619,575
1620,575
1621,574
1622,570
1623,566
1624,562
1625,561
1626,560
1627,558
1628,556
1629,556
1630,555
1631,555
1632,553
1633,550
1634,550
1635,550
1636,545
1637,540
1638,536
1639,533
1640,528
1641,527
1642,531
1643,526
1644,523
1645,524
1646,521
1647,519
1648,516
1649,514
1650,515
1651,514
1652,512
1653,506
1654,500
1655,497
1656,492
1657,490
1658,489
1659,486
1660,487
1661,485
1662,483
1663,482
1664,479
1665,477
1666,472
1667,467
1668,464
1669,465
1670,465
1671,463
1672,460
1673,455
1674,455
1675,460
1676,464
1677,464
1678,463
1679,464
1680,462
1681,456
1682,452
1683,448
1684,445
1685,446
1686,444
1687,444
1688,446
1689,448
1690,451
1691,450
1692,447
1693,441
1694,439
1695,441
1696,440
1697,441
1698,445
1699,447
1700,448
1701,448
1702,449
1703,446
1704,444
1705,444
1706,444
1707,444
1708,442
1709,441
1710,441
1711,442
1712,443
1713,442
1714,440
1715,441
1716,446
1717,448
1718,447
1719,446
1720,445
1721,445
1722,448
1723,451
1724,450
1725,451
1726,451
1727,453
1728,452
1729,450
1730,451
1731,448
1732,449
1733,453
1734,455
1735,457
1736,457
1737,458
1738,461
1739,464
1740,468
1741,468
1742,467
1743,466
1744,466
1745,469
1746,469
1747,468
1748,467
1749,467
1750,471
1751,473
1752,477
1753,479
1754,479
1755,480
1756,479
1757,477
1758,476
1759,475
1760,476
1761,476
1762,476
1763,477
1764,478
1765,482
1766,482
1767,479
1768,476
1769,472
1770,471
1771,470
1772,475
1773,480
1774,480
1775,480
1776,483
1777,486
1778,488
1779,487
1780,484
1781,478
1782,475
1783,476
1784,479
1785,481
1786,483
1787,487
1788,493
1789,495
1790,498
1791,495
1792,489
1793,484
1794,481
1795,483
1796,485
1797,482
1798,485
1799,487
1800,484
1801,480
1802,478
1803,476
1804,474
1805,473
1806,475
1807,480
1808,483
1809,483
1810,483
1811,483
1812,483
1813,483
1814,486
1815,491
1816,493
1817,496
1818,495
1819,491
1820,491
1821,489
1822,488
1823,486
1824,486
1825,488
1826,486
1827,486
1828,487
1829,487
1830,489
1831,487
1832,485
1833,484
1834,483
1835,487
1836,492
1837,496
1838,497
1839,495
1840,492
1841,488
1842,485
1843,481
1844,480
1845,483
1846,487
1847,487
1848,485
1849,485
1850,486
1851,486
1852,488
1853,487
1854,486
1855,489
1856,489
1857,488
1858,488
1859,491
1860,495
1861,497
1862,501
1863,501
1864,499
1865,500
1866,500
1867,502
1868,501
1869,501
1870,501
1871,498
1872,500
1873,501
1874,497
1875,498
1876,498
1877,499
1878,499
1879,499
1880,499
1881,500
1882,502
1883,503
1884,499
1885,496
1886,494
1887,498
1888,497
1889,496
1890,497
1891,496
1892,496
1893,496
1894,497
1895,499
1896,500
1897,502
1898,502
1899,498
1900,497
1901,494
1902,493
1903,493
1904,496
1905,499
1906,503
1907,504
1908,505
1909,502
1910,502
1911,502
1912,499
1913,497
1914,495
1915,496
1916,498
1917,502
1918,501
1919,499
1920,500
1921,500
1922,499
1923,499
1924,500
1925,499
1926,501
1927,504
1928,507
1929,508
1930,508
1931,510
1932,513
1933,515
1934,516
1935,516
1936,515
1937,515
1938,516
1939,514
1940,515
1941,516
1942,515
1943,514
1944,511
1945,511
1946,508
1947,507
1948,507
1949,508
1950,508
1951,508
1952,510
1953,510
1954,511
1955,510
1956,508
1957,508
1958,509
1959,509
1960,508
1961,509
1962,511
1963,515
1964,516
1965,515
1966,511
1967,511
1968,512
1969,512
1970,512
1971,511
1972,512
1973,514
1974,512
1975,510
1976,505
1977,503
1978,502
1979,501
1980,504
1981,510
1982,514
1983,516
1984,518
1985,519
1986,522
1987,524
1988,524
1989,522
1990,524
1991,526
1992,525
1993,523
1994,521
1995,521
1996,521
1997,523
1998,524
1999,524
