# OpenSignals Text File Format. Version 1
# {"98:D3:61:FD:78:31": {"position": 0, "device": "bitalino_rev", "device name": "98:D3:61:FD:78:31", "device connection": "BTH98:D3:61:FD:78:31", "sampling rate": 1000, "resolution": [4, 1, 1, 1, 1, 10, 10, 10, 10, 6, 6], "firmware version": 1282, "comments": "", "keywords": "", "mode": 0, "sync interval": 2, "date": "2024-4-12", "time": "12:24:9.853", "channels": [1, 2, 3, 4, 5, 6], "sensor": ["RAW", "RAW", "RAW", "RAW", "RAW", "RAW"], "label": ["A1", "A2", "A3", "A4", "A5", "A6"], "column": ["nSeq", "I1", "I2", "O1", "O2", "A1", "A2", "A3", "A4", "A5", "A6"], "special": [{}, {}, {}, {}, {}, {}], "digital IO": [0, 0, 1, 1]}}
# EndOfHeader
0	0	0	0	0	509	508	0	510	38	20	
1	0	0	0	0	506	507	0	469	38	20	
2	0	0	0	0	505	507	0	405	38	20	
3	0	0	0	0	505	508	0	335	38	20	
4	0	0	0	0	508	508	0	270	38	20	
5	0	0	0	0	509	508	0	224	38	20	
6	0	0	0	0	505	508	0	206	38	20	
7	0	0	0	0	506	509	0	200	38	20	
8	0	0	0	0	507	509	0	175	39	20	
9	0	0	0	0	508	508	0	158	38	20	
10	0	0	0	0	509	508	0	136	38	20	
11	0	0	0	0	507	509	0	123	38	20	
12	0	0	0	0	505	509	0	139	38	20	
13	0	0	0	0	510	509	0	155	38	20	
14	0	0	0	0	510	508	0	140	38	20	
15	0	0	0	0	509	507	0	126	38	20	
0	0	0	0	0	509	507	0	118	39	20	
1	0	0	0	0	508	506	0	127	38	20	
2	0	0	0	0	508	507	0	147	38	20	
3	0	0	0	0	507	506	0	166	38	20	
4	0	0	0	0	508	505	0	165	38	20	
5	0	0	0	0	512	508	0	180	38	20	
6	0	0	0	0	511	508	0	192	38	20	
7	0	0	0	0	513	510	0	196	38	20	
8	0	0	0	0	510	509	0	211	39	20	
9	0	0	0	0	509	509	0	222	38	20	
10	0	0	0	0	511	508	0	232	38	20	
11	0	0	0	0	513	510	0	248	38	20	
12	0	0	0	0	511	509	0	261	38	20	
13	0	0	0	0	511	510	0	265	38	20	
14	0	0	0	0	508	510	0	267	38	20	
15	0	0	0	0	512	511	0	266	38	20	
0	0	0	0	0	510	510	0	271	39	20	
1	0	0	0	0	508	510	0	267	38	20	
2	0	0	0	0	509	510	0	246	38	20	
3	0	0	0	0	509	510	0	237	38	20	
4	0	0	0	0	511	509	0	245	38	20	
5	0	0	0	0	509	509	0	261	38	20	
6	0	0	0	0	508	508	0	284	38	20	
7	0	0	0	0	509	508	0	289	38	20	
8	0	0	0	0	509	506	0	275	39	20	
9	0	0	0	0	507	506	0	257	38	20	
10	0	0	0	0	505	506	0	249	38	20	
11	0	0	0	0	508	508	0	253	38	20	
12	0	0	0	0	509	507	0	251	38	20	
13	0	0	0	0	508	508	0	263	38	20	
14	0	0	0	0	507	508	0	272	38	20	
15	0	0	0	0	507	509	0	279	38	20	
0	0	0	0	0	508	507	0	277	39	20	
1	0	0	0	0	507	508	0	263	38	20	
2	0	0	0	0	507	507	0	244	38	20	
3	0	0	0	0	508	507	0	242	38	20	
4	0	0	0	0	508	505	0	242	38	20	
5	0	0	0	0	509	506	0	246	38	20	
6	0	0	0	0	508	505	0	257	38	20	
7	0	0	0	0	510	505	0	275	38	20	
8	0	0	0	0	508	506	0	282	39	20	
9	0	0	0	0	510	505	0	293	38	20	
10	0	0	0	0	508	507	0	309	38	20	
11	0	0	0	0	507	507	0	325	38	20	
12	0	0	0	0	509	507	0	337	38	20	
13	0	0	0	0	507	508	0	355	38	20	
14	0	0	0	0	510	509	0	349	38	20	
15	0	0	0	0	508	511	0	341	38	20	
0	0	0	0	0	508	512	0	340	39	20	
1	0	0	0	0	501	511	0	333	38	20	
2	0	0	0	0	501	510	0	315	38	20	
3	0	0	0	0	505	509	0	314	38	20	
4	0	0	0	0	508	509	0	323	38	20	
5	0	0	0	0	508	508	0	334	38	20	
6	0	0	0	0	510	509	0	339	38	20	
7	0	0	0	0	510	508	0	348	38	20	
8	0	0	0	0	509	509	0	350	39	20	
9	0	0	0	0	509	507	0	343	38	20	
10	0	0	0	0	507	507	0	332	38	20	
11	0	0	0	0	508	507	0	325	38	20	
12	0	0	0	0	509	507	0	334	38	20	
13	0	0	0	0	509	507	0	350	38	20	
14	0	0	0	0	508	505	0	375	38	20	
15	0	0	0	0	513	505	0	375	38	20	
0	0	0	0	0	512	505	0	369	39	20	
1	0	0	0	0	511	504	0	379	38	20	
2	0	0	0	0	508	505	0	406	38	20	
3	0	0	0	0	508	508	0	428	38	20	
4	0	0	0	0	509	508	0	442	38	20	
5	0	0	0	0	508	509	0	446	38	20	
6	0	0	0	0	511	508	0	455	38	20	
7	0	0	0	0	510	508	0	465	38	20	
8	0	0	0	0	511	507	0	466	39	20	
9	0	0	0	0	511	507	0	461	38	20	
10	0	0	0	0	510	504	0	455	38	20	
11	0	0	0	0	507	506	0	434	38	20	
12	0	0	0	0	511	507	0	435	38	20	
13	0	0	0	0	509	507	0	435	38	20	
14	0	0	0	0	512	506	0	437	38	20	
15	0	0	0	0	508	507	0	439	38	20	
0	0	0	0	0	508	506	0	444	39	20	
1	0	0	0	0	510	507	0	462	38	20	
2	0	0	0	0	509	507	0	479	38	20	
3	0	0	0	0	507	509	0	477	38	20	
4	0	0	0	0	511	508	0	471	38	20	
5	0	0	0	0	511	509	0	459	38	20	
6	0	0	0	0	508	510	0	439	38	20	
7	0	0	0	0	509	509	0	425	38	20	
8	0	0	0	0	508	511	0	408	39	20	
9	0	0	0	0	510	511	0	398	38	20	
10	0	0	0	0	510	510	0	394	38	20	
11	0	0	0	0	511	509	0	400	38	20	
12	0	0	0	0	510	509	0	412	38	20	
13	0	0	0	0	509	507	0	434	38	20	
14	0	0	0	0	508	507	0	445	38	20	
15	0	0	0	0	507	507	0	439	38	20	
0	0	0	0	0	508	507	0	430	39	20	
1	0	0	0	0	507	508	0	445	38	20	
2	0	0	0	0	505	508	0	453	38	20	
3	0	0	0	0	502	508	0	439	38	20	
4	0	0	0	0	507	507	0	419	38	20	
5	0	0	0	0	505	508	0	412	38	20	
6	0	0	0	0	510	507	0	419	38	20	
7	0	0	0	0	508	507	0	422	38	20	
8	0	0	0	0	507	506	0	430	39	20	
9	0	0	0	0	508	505	0	430	38	20	
10	0	0	0	0	508	506	0	444	38	20	
11	0	0	0	0	505	508	0	455	38	20	
12	0	0	0	0	510	508	0	456	38	20	
13	0	0	0	0	510	509	0	458	38	20	
14	0	0	0	0	511	509	0	455	38	20	
15	0	0	0	0	511	509	0	446	38	20	
0	0	0	0	0	511	509	0	438	39	20	
1	0	0	0	0	513	509	0	433	38	20	
2	0	0	0	0	514	509	0	422	38	20	
3	0	0	0	0	513	507	0	414	38	20	
4	0	0	0	0	512	508	0	412	38	20	
5	0	0	0	0	510	508	0	419	38	20	
6	0	0	0	0	511	507	0	417	38	20	
7	0	0	0	0	509	508	0	407	38	20	
8	0	0	0	0	508	509	0	409	39	20	
9	0	0	0	0	509	508	0	422	38	20	
10	0	0	0	0	509	507	0	442	38	20	
11	0	0	0	0	510	506	0	454	38	20	
12	0	0	0	0	509	506	0	471	38	20	
13	0	0	0	0	504	506	0	477	38	20	
14	0	0	0	0	510	506	0	480	38	20	
15	0	0	0	0	511	506	0	477	38	20	
0	0	0	0	0	512	507	0	474	39	20	
1	0	0	0	0	514	506	0	478	38	20	
2	0	0	0	0	512	506	0	487	38	20	
3	0	0	0	0	513	509	0	497	38	20	
4	0	0	0	0	512	505	0	512	38	20	
5	0	0	0	0	510	506	0	522	38	20	
6	0	0	0	0	509	506	0	522	38	20	
7	0	0	0	0	509	507	0	519	38	20	
8	0	0	0	0	508	507	0	528	39	20	
9	0	0	0	0	508	507	0	551	38	20	
10	0	0	0	0	506	507	0	542	38	20	
11	0	0	0	0	507	507	0	525	38	20	
12	0	0	0	0	507	508	0	526	38	20	
13	0	0	0	0	506	509	0	541	38	20	
14	0	0	0	0	505	510	0	560	38	20	
15	0	0	0	0	508	510	0	584	38	20	
0	0	0	0	0	506	510	0	599	39	20	
1	0	0	0	0	508	509	0	610	38	20	
2	0	0	0	0	509	510	0	616	38	20	
3	0	0	0	0	509	512	0	615	38	20	
4	0	0	0	0	504	511	0	609	38	20	
5	0	0	0	0	507	510	0	605	38	20	
6	0	0	0	0	511	510	0	602	38	20	
7	0	0	0	0	508	510	0	590	38	20	
8	0	0	0	0	507	511	0	579	39	20	
9	0	0	0	0	509	511	0	580	38	20	
10	0	0	0	0	509	509	0	574	38	20	
11	0	0	0	0	508	508	0	575	38	20	
12	0	0	0	0	508	509	0	559	38	20	
13	0	0	0	0	509	511	0	552	38	20	
14	0	0	0	0	509	511	0	553	38	20	
15	0	0	0	0	512	508	0	545	38	20	
0	0	0	0	0	514	508	0	544	39	20	
1	0	0	0	0	513	508	0	536	38	20	
2	0	0	0	0	511	507	0	531	38	20	
3	0	0	0	0	509	507	0	531	38	20	
4	0	0	0	0	509	507	0	530	38	20	
5	0	0	0	0	509	508	0	542	38	20	
6	0	0	0	0	512	508	0	562	38	20	
7	0	0	0	0	513	508	0	588	38	20	
8	0	0	0	0	508	509	0	580	39	20	
9	0	0	0	0	508	509	0	552	38	20	
10	0	0	0	0	511	511	0	535	38	20	
11	0	0	0	0	513	510	0	524	38	20	
12	0	0	0	0	511	511	0	524	38	20	
13	0	0	0	0	512	511	0	561	38	20	
14	0	0	0	0	509	510	0	584	38	20	
15	0	0	0	0	508	509	0	590	38	20	
0	0	0	0	0	509	508	0	571	39	20	
1	0	0	0	0	509	507	0	548	38	20	
2	0	0	0	0	510	507	0	537	38	20	
3	0	0	0	0	509	508	0	525	38	20	
4	0	0	0	0	510	508	0	524	38	20	
5	0	0	0	0	511	508	0	521	38	20	
6	0	0	0	0	512	509	0	520	38	20	
7	0	0	0	0	512	508	0	529	38	20	
8	0	0	0	0	510	505	0	529	39	20	
9	0	0	0	0	504	507	0	519	38	20	
10	0	0	0	0	506	506	0	502	38	20	
11	0	0	0	0	507	506	0	483	38	20	
12	0	0	0	0	506	508	0	467	38	20	
13	0	0	0	0	509	508	0	452	38	20	
14	0	0	0	0	512	508	0	449	38	20	
15	0	0	0	0	511	505	0	463	38	20	
0	0	0	0	0	511	504	0	487	39	20	
1	0	0	0	0	511	504	0	478	38	20	
2	0	0	0	0	512	504	0	480	38	20	
3	0	0	0	0	510	505	0	494	38	20	
4	0	0	0	0	512	505	0	503	38	20	
5	0	0	0	0	510	505	0	526	38	20	
6	0	0	0	0	509	505	0	549	38	20	
7	0	0	0	0	505	505	0	553	38	20	
8	0	0	0	0	507	505	0	546	39	20	
9	0	0	0	0	509	506	0	544	38	20	
10	0	0	0	0	508	508	0	535	38	20	
11	0	0	0	0	510	510	0	518	38	20	
12	0	0	0	0	510	509	0	519	38	20	
13	0	0	0	0	509	508	0	512	38	20	
14	0	0	0	0	508	508	0	520	38	20	
15	0	0	0	0	510	509	0	526	38	20	
0	0	0	0	0	510	508	0	520	39	20	
1	0	0	0	0	511	507	0	516	38	20	
2	0	0	0	0	508	507	0	513	38	20	
3	0	0	0	0	509	506	0	524	38	20	
4	0	0	0	0	508	506	0	536	38	20	
5	0	0	0	0	508	506	0	531	38	20	
6	0	0	0	0	508	506	0	536	38	20	
7	0	0	0	0	505	505	0	544	38	20	
8	0	0	0	0	509	505	0	551	39	20	
9	0	0	0	0	509	507	0	557	38	20	
10	0	0	0	0	510	508	0	551	38	20	
11	0	0	0	0	510	508	0	549	38	20	
12	0	0	0	0	507	508	0	556	38	20	
13	0	0	0	0	508	507	0	568	38	20	
14	0	0	0	0	509	507	0	575	38	20	
15	0	0	0	0	511	508	0	588	38	20	
0	0	0	0	0	510	510	0	588	39	20	
1	0	0	0	0	510	508	0	572	38	20	
2	0	0	0	0	510	508	0	556	38	20	
3	0	0	0	0	510	507	0	553	38	20	
4	0	0	0	0	509	507	0	558	38	20	
5	0	0	0	0	510	508	0	571	38	20	
6	0	0	0	0	507	508	0	579	38	20	
7	0	0	0	0	510	508	0	577	38	20	
8	0	0	0	0	509	508	0	588	39	20	
9	0	0	0	0	507	507	0	588	38	20	
10	0	0	0	0	509	507	0	578	38	20	
11	0	0	0	0	510	507	0	577	38	20	
12	0	0	0	0	511	506	0	577	38	20	
13	0	0	0	0	509	507	0	573	38	20	
14	0	0	0	0	511	507	0	546	38	20	
15	0	0	0	0	509	505	0	522	38	20	
0	0	0	0	0	508	507	0	528	39	20	
1	0	0	0	0	511	508	0	521	38	20	
2	0	0	0	0	509	509	0	527	38	20	
3	0	0	0	0	510	511	0	544	38	20	
4	0	0	0	0	510	510	0	555	38	20	
5	0	0	0	0	509	509	0	569	38	20	
6	0	0	0	0	509	509	0	580	38	20	
7	0	0	0	0	511	507	0	582	38	20	
8	0	0	0	0	511	508	0	558	39	20	
9	0	0	0	0	511	508	0	521	38	20	
10	0	0	0	0	512	507	0	493	38	20	
11	0	0	0	0	511	506	0	483	38	20	
12	0	0	0	0	511	508	0	483	38	20	
13	0	0	0	0	509	509	0	479	38	20	
14	0	0	0	0	510	508	0	481	38	20	
15	0	0	0	0	508	507	0	472	38	20	
0	0	0	0	0	509	508	0	472	39	20	
1	0	0	0	0	508	507	0	477	38	20	
2	0	0	0	0	505	507	0	471	38	20	
3	0	0	0	0	508	506	0	479	38	20	
4	0	0	0	0	507	505	0	498	38	20	
5	0	0	0	0	506	505	0	518	38	20	
6	0	0	0	0	510	505	0	547	38	20	
7	0	0	0	0	505	507	0	562	38	20	
8	0	0	0	0	507	508	0	572	39	20	
9	0	0	0	0	509	508	0	581	38	20	
10	0	0	0	0	510	508	0	593	38	20	
11	0	0	0	0	506	508	0	596	38	20	
12	0	0	0	0	509	506	0	592	38	20	
13	0	0	0	0	507	506	0	583	38	20	
14	0	0	0	0	511	508	0	587	38	20	
15	0	0	0	0	511	510	0	607	38	20	
0	0	0	0	0	510	509	0	624	39	20	
1	0	0	0	0	512	508	0	623	38	20	
2	0	0	0	0	511	509	0	618	38	20	
3	0	0	0	0	509	509	0	620	38	20	
4	0	0	0	0	508	511	0	617	38	20	
5	0	0	0	0	509	509	0	607	38	20	
6	0	0	0	0	510	509	0	595	38	20	
7	0	0	0	0	514	510	0	585	38	20	
8	0	0	0	0	515	511	0	591	39	20	
9	0	0	0	0	508	511	0	587	38	20	
10	0	0	0	0	504	509	0	574	38	20	
11	0	0	0	0	506	509	0	558	38	20	
12	0	0	0	0	505	509	0	554	38	20	
13	0	0	0	0	507	509	0	562	38	20	
14	0	0	0	0	508	507	0	575	38	20	
15	0	0	0	0	509	507	0	583	38	20	
0	0	0	0	0	505	507	0	574	39	20	
1	0	0	0	0	503	507	0	555	38	20	
2	0	0	0	0	507	506	0	542	38	20	
3	0	0	0	0	510	506	0	543	38	20	
4	0	0	0	0	512	506	0	553	38	20	
5	0	0	0	0	511	507	0	555	38	20	
6	0	0	0	0	512	507	0	551	38	20	
7	0	0	0	0	512	507	0	554	38	20	
8	0	0	0	0	510	505	0	559	39	20	
9	0	0	0	0	509	506	0	557	38	20	
10	0	0	0	0	508	508	0	550	38	20	
11	0	0	0	0	507	508	0	541	38	20	
12	0	0	0	0	510	507	0	532	38	20	
13	0	0	0	0	511	507	0	516	38	20	
14	0	0	0	0	510	507	0	506	38	20	
15	0	0	0	0	509	506	0	507	38	20	
0	0	0	0	0	511	505	0	519	39	20	
1	0	0	0	0	510	505	0	531	38	20	
2	0	0	0	0	510	506	0	548	38	20	
3	0	0	0	0	511	505	0	558	38	20	
4	0	0	0	0	511	504	0	568	38	20	
5	0	0	0	0	511	504	0	573	38	20	
6	0	0	0	0	506	507	0	566	38	20	
7	0	0	0	0	506	508	0	562	38	20	
8	0	0	0	0	508	509	0	553	39	20	
9	0	0	0	0	509	510	0	534	38	20	
10	0	0	0	0	509	510	0	524	38	20	
11	0	0	0	0	509	510	0	517	38	20	
12	0	0	0	0	509	510	0	500	38	20	
13	0	0	0	0	510	511	0	496	38	20	
14	0	0	0	0	508	508	0	494	38	20	
15	0	0	0	0	512	508	0	517	38	20	
0	0	0	0	0	512	508	0	550	39	20	
1	0	0	0	0	512	508	0	566	38	20	
2	0	0	0	0	512	509	0	578	38	20	
3	0	0	0	0	510	508	0	581	38	20	
4	0	0	0	0	511	506	0	580	38	20	
5	0	0	0	0	510	505	0	575	38	20	
6	0	0	0	0	509	508	0	558	38	20	
7	0	0	0	0	508	506	0	556	38	20	
8	0	0	0	0	508	508	0	552	39	20	
9	0	0	0	0	509	508	0	545	38	20	
10	0	0	0	0	510	509	0	531	38	20	
11	0	0	0	0	509	508	0	534	38	20	
12	0	0	0	0	508	508	0	548	38	20	
13	0	0	0	0	509	508	0	551	38	20	
14	0	0	0	0	508	507	0	543	38	20	
15	0	0	0	0	508	508	0	539	38	20	
0	0	0	0	0	509	508	0	536	39	20	
1	0	0	0	0	509	507	0	527	38	20	
2	0	0	0	0	507	507	0	519	38	20	
3	0	0	0	0	506	508	0	518	38	20	
4	0	0	0	0	510	506	0	532	38	20	
5	0	0	0	0	508	506	0	552	38	20	
6	0	0	0	0	510	507	0	568	38	20	
7	0	0	0	0	509	508	0	569	38	20	
8	0	0	0	0	509	510	0	572	39	20	
9	0	0	0	0	509	510	0	591	38	20	
10	0	0	0	0	512	510	0	621	38	20	
11	0	0	0	0	511	509	0	624	38	20	
12	0	0	0	0	511	507	0	609	38	20	
13	0	0	0	0	511	506	0	597	38	20	
14	0	0	0	0	509	507	0	595	38	20	
15	0	0	0	0	512	508	0	608	38	20	
0	0	0	0	0	511	508	0	617	39	20	
1	0	0	0	0	508	508	0	606	38	20	
2	0	0	0	0	508	507	0	590	38	20	
3	0	0	0	0	508	507	0	575	38	20	
4	0	0	0	0	507	506	0	568	38	20	
5	0	0	0	0	508	505	0	573	38	20	
6	0	0	0	0	507	506	0	574	38	20	
7	0	0	0	0	504	506	0	567	38	20	
8	0	0	0	0	505	507	0	556	39	20	
9	0	0	0	0	505	506	0	549	38	20	
10	0	0	0	0	506	506	0	554	38	20	
11	0	0	0	0	506	508	0	559	38	20	
12	0	0	0	0	507	509	0	560	38	20	
13	0	0	0	0	510	509	0	567	38	20	
14	0	0	0	0	510	509	0	577	38	20	
15	0	0	0	0	512	509	0	585	38	20	
0	0	0	0	0	511	510	0	599	39	20	
1	0	0	0	0	509	510	0	604	38	20	
2	0	0	0	0	509	508	0	585	38	20	
3	0	0	0	0	508	508	0	563	38	20	
4	0	0	0	0	508	508	0	556	38	20	
5	0	0	0	0	508	506	0	571	38	20	
6	0	0	0	0	507	505	0	580	38	20	
7	0	0	0	0	508	507	0	579	38	20	
8	0	0	0	0	508	507	0	584	39	20	
9	0	0	0	0	508	508	0	584	38	20	
10	0	0	0	0	511	507	0	567	38	20	
11	0	0	0	0	510	508	0	542	38	20	
12	0	0	0	0	510	506	0	524	38	20	
13	0	0	0	0	510	505	0	516	38	20	
14	0	0	0	0	508	506	0	509	38	20	
15	0	0	0	0	512	505	0	499	38	20	
0	0	0	0	0	508	505	0	482	39	20	
1	0	0	0	0	510	505	0	466	38	20	
2	0	0	0	0	512	506	0	465	38	20	
3	0	0	0	0	509	507	0	473	38	20	
4	0	0	0	0	510	506	0	473	38	20	
5	0	0	0	0	509	508	0	480	38	20	
6	0	0	0	0	508	510	0	486	38	20	
7	0	0	0	0	509	510	0	486	38	20	
8	0	0	0	0	507	509	0	490	39	20	
9	0	0	0	0	509	508	0	487	38	20	
10	0	0	0	0	513	506	0	481	38	20	
11	0	0	0	0	512	506	0	484	38	20	
12	0	0	0	0	512	506	0	483	38	20	
13	0	0	0	0	510	505	0	493	38	20	
14	0	0	0	0	511	507	0	492	38	20	
15	0	0	0	0	508	507	0	485	38	20	
0	0	0	0	0	508	505	0	489	39	20	
1	0	0	0	0	507	507	0	499	38	20	
2	0	0	0	0	513	507	0	517	38	20	
3	0	0	0	0	510	508	0	536	38	20	
4	0	0	0	0	508	508	0	551	38	20	
5	0	0	0	0	510	508	0	557	38	20	
6	0	0	0	0	508	508	0	563	38	20	
7	0	0	0	0	511	509	0	572	38	20	
8	0	0	0	0	510	510	0	573	39	20	
9	0	0	0	0	511	510	0	566	38	20	
10	0	0	0	0	512	508	0	562	38	20	
11	0	0	0	0	511	509	0	570	38	20	
12	0	0	0	0	513	508	0	561	38	20	
13	0	0	0	0	512	507	0	531	38	20	
14	0	0	0	0	511	508	0	503	38	20	
15	0	0	0	0	508	509	0	489	38	20	
0	0	0	0	0	509	508	0	491	39	20	
1	0	0	0	0	509	509	0	493	38	20	
2	0	0	0	0	508	509	0	492	38	20	
3	0	0	0	0	508	509	0	488	38	20	
4	0	0	0	0	508	509	0	501	38	20	
5	0	0	0	0	508	508	0	514	38	20	
6	0	0	0	0	508	509	0	523	38	20	
7	0	0	0	0	509	510	0	540	38	20	
8	0	0	0	0	507	508	0	572	39	20	
9	0	0	0	0	508	508	0	594	38	20	
10	0	0	0	0	508	508	0	598	38	20	
11	0	0	0	0	509	507	0	594	38	20	
12	0	0	0	0	509	508	0	586	38	20	
13	0	0	0	0	509	509	0	574	38	20	
14	0	0	0	0	508	507	0	568	38	20	
15	0	0	0	0	508	508	0	568	38	20	
0	0	0	0	0	508	507	0	577	39	20	
1	0	0	0	0	509	508	0	577	38	20	
2	0	0	0	0	507	508	0	578	38	20	
3	0	0	0	0	509	507	0	576	38	20	
4	0	0	0	0	507	508	0	573	38	20	
5	0	0	0	0	506	508	0	568	38	20	
6	0	0	0	0	507	507	0	558	38	20	
7	0	0	0	0	509	508	0	550	38	20	
8	0	0	0	0	511	506	0	561	39	20	
9	0	0	0	0	510	507	0	563	38	20	
10	0	0	0	0	507	508	0	568	38	20	
11	0	0	0	0	510	509	0	557	38	20	
12	0	0	0	0	509	510	0	556	38	20	
13	0	0	0	0	510	507	0	560	38	20	
14	0	0	0	0	510	508	0	551	38	20	
15	0	0	0	0	514	508	0	550	38	20	
0	0	0	0	0	510	508	0	537	39	20	
1	0	0	0	0	510	508	0	527	38	20	
2	0	0	0	0	508	508	0	525	38	20	
3	0	0	0	0	507	507	0	531	38	20	
4	0	0	0	0	510	507	0	541	38	20	
5	0	0	0	0	509	506	0	542	38	20	
6	0	0	0	0	508	508	0	544	38	20	
7	0	0	0	0	507	510	0	547	38	20	
8	0	0	0	0	510	510	0	551	39	20	
9	0	0	0	0	510	511	0	559	38	20	
10	0	0	0	0	510	512	0	548	38	20	
11	0	0	0	0	511	510	0	542	38	20	
12	0	0	0	0	508	509	0	541	38	20	
13	0	0	0	0	509	508	0	537	38	20	
14	0	0	0	0	507	508	0	531	38	20	
15	0	0	0	0	504	508	0	540	38	20	
0	0	0	0	0	505	508	0	543	39	20	
1	0	0	0	0	508	508	0	553	38	20	
2	0	0	0	0	508	508	0	566	38	20	
3	0	0	0	0	510	510	0	570	38	20	
4	0	0	0	0	510	509	0	565	38	20	
5	0	0	0	0	508	509	0	562	38	20	
6	0	0	0	0	510	508	0	569	38	20	
7	0	0	0	0	512	508	0	579	38	20	
8	0	0	0	0	511	508	0	593	39	20	
9	0	0	0	0	515	507	0	615	38	20	
10	0	0	0	0	512	506	0	595	38	20	
11	0	0	0	0	508	507	0	581	38	20	
12	0	0	0	0	509	508	0	582	38	20	
13	0	0	0	0	508	507	0	582	38	20	
14	0	0	0	0	510	506	0	570	38	20	
15	0	0	0	0	510	508	0	568	38	20	
0	0	0	0	0	510	509	0	584	39	20	
1	0	0	0	0	510	507	0	589	38	20	
2	0	0	0	0	509	506	0	576	38	20	
3	0	0	0	0	508	507	0	557	38	20	
4	0	0	0	0	510	506	0	561	38	20	
5	0	0	0	0	510	506	0	574	38	20	
6	0	0	0	0	510	507	0	585	38	20	
7	0	0	0	0	507	508	0	584	38	20	
8	0	0	0	0	505	509	0	581	39	20	
9	0	0	0	0	507	508	0	588	38	20	
10	0	0	0	0	510	508	0	592	38	20	
11	0	0	0	0	510	507	0	591	38	20	
12	0	0	0	0	511	507	0	585	38	20	
13	0	0	0	0	510	506	0	578	38	20	
14	0	0	0	0	510	508	0	574	38	20	
15	0	0	0	0	511	509	0	572	38	20	
0	0	0	0	0	506	508	0	582	39	20	
1	0	0	0	0	507	507	0	597	38	20	
2	0	0	0	0	508	507	0	589	38	20	
3	0	0	0	0	509	506	0	580	38	20	
4	0	0	0	0	508	506	0	575	38	20	
5	0	0	0	0	509	507	0	575	38	20	
6	0	0	0	0	508	505	0	572	38	20	
7	0	0	0	0	507	504	0	544	38	20	
8	0	0	0	0	507	505	0	519	39	20	
9	0	0	0	0	508	508	0	523	38	20	
10	0	0	0	0	510	509	0	534	38	20	
11	0	0	0	0	508	508	0	534	38	20	
12	0	0	0	0	511	508	0	519	38	20	
13	0	0	0	0	511	508	0	520	38	20	
14	0	0	0	0	510	507	0	513	38	20	
15	0	0	0	0	512	506	0	501	38	20	
0	0	0	0	0	511	506	0	478	39	20	
1	0	0	0	0	512	507	0	479	38	20	
2	0	0	0	0	511	508	0	503	38	20	
3	0	0	0	0	510	509	0	529	38	20	
4	0	0	0	0	508	509	0	542	38	20	
5	0	0	0	0	508	509	0	554	38	20	
6	0	0	0	0	510	510	0	563	38	20	
7	0	0	0	0	508	510	0	564	38	20	
8	0	0	0	0	508	509	0	573	39	20	
9	0	0	0	0	508	508	0	582	38	20	
10	0	0	0	0	510	509	0	590	38	20	
11	0	0	0	0	511	509	0	584	38	20	
12	0	0	0	0	510	508	0	557	38	20	
13	0	0	0	0	510	510	0	541	38	20	
14	0	0	0	0	514	511	0	533	38	20	
15	0	0	0	0	510	511	0	526	38	20	
0	0	0	0	0	508	510	0	499	39	20	
1	0	0	0	0	509	509	0	485	38	20	
2	0	0	0	0	505	507	0	489	38	20	
3	0	0	0	0	505	506	0	505	38	20	
4	0	0	0	0	506	504	0	526	38	20	
5	0	0	0	0	506	504	0	536	38	20	
6	0	0	0	0	505	504	0	543	38	20	
7	0	0	0	0	505	505	0	537	38	20	
8	0	0	0	0	507	505	0	530	39	20	
9	0	0	0	0	511	505	0	527	38	20	
10	0	0	0	0	515	505	0	523	38	20	
11	0	0	0	0	514	505	0	519	38	20	
12	0	0	0	0	511	505	0	527	38	20	
13	0	0	0	0	511	507	0	539	38	20	
14	0	0	0	0	511	507	0	552	38	20	
15	0	0	0	0	512	506	0	572	38	20	
0	0	0	0	0	511	507	0	595	39	20	
1	0	0	0	0	511	508	0	618	38	20	
2	0	0	0	0	512	508	0	626	38	20	
3	0	0	0	0	511	508	0	619	38	20	
4	0	0	0	0	512	511	0	621	38	20	
5	0	0	0	0	509	510	0	606	38	20	
6	0	0	0	0	507	508	0	590	38	20	
7	0	0	0	0	505	507	0	590	38	20	
8	0	0	0	0	505	507	0	594	39	20	
9	0	0	0	0	506	509	0	611	38	20	
10	0	0	0	0	508	509	0	618	38	20	
11	0	0	0	0	511	510	0	620	38	20	
12	0	0	0	0	511	510	0	613	38	20	
13	0	0	0	0	506	510	0	608	38	20	
14	0	0	0	0	507	509	0	592	38	20	
15	0	0	0	0	506	509	0	562	38	20	
0	0	0	0	0	509	509	0	534	39	20	
1	0	0	0	0	509	509	0	521	38	20	
2	0	0	0	0	509	509	0	515	38	20	
3	0	0	0	0	512	508	0	530	38	20	
4	0	0	0	0	510	509	0	536	38	20	
5	0	0	0	0	511	508	0	540	38	20	
6	0	0	0	0	512	508	0	550	38	20	
7	0	0	0	0	512	507	0	560	38	20	
8	0	0	0	0	513	507	0	553	39	20	
9	0	0	0	0	511	507	0	531	38	20	
10	0	0	0	0	511	508	0	518	38	20	
11	0	0	0	0	508	506	0	532	38	20	
12	0	0	0	0	505	506	0	511	38	20	
13	0	0	0	0	509	505	0	493	38	20	
14	0	0	0	0	511	505	0	490	38	20	
15	0	0	0	0	508	506	0	494	38	20	
0	0	0	0	0	510	507	0	509	39	20	
1	0	0	0	0	511	507	0	517	38	20	
2	0	0	0	0	510	508	0	519	38	20	
3	0	0	0	0	510	508	0	518	38	20	
4	0	0	0	0	510	507	0	508	38	20	
5	0	0	0	0	509	507	0	499	38	20	
6	0	0	0	0	509	507	0	494	38	20	
7	0	0	0	0	511	508	0	482	38	20	
8	0	0	0	0	506	506	0	480	39	20	
9	0	0	0	0	509	505	0	480	38	20	
10	0	0	0	0	510	506	0	478	38	20	
11	0	0	0	0	508	508	0	488	38	20	
12	0	0	0	0	507	508	0	517	38	20	
13	0	0	0	0	509	508	0	549	38	20	
14	0	0	0	0	507	507	0	583	38	20	
15	0	0	0	0	509	508	0	611	38	20	
0	0	0	0	0	507	507	0	618	39	20	
1	0	0	0	0	508	505	0	625	38	20	
2	0	0	0	0	507	508	0	607	38	20	
3	0	0	0	0	507	509	0	585	38	20	
4	0	0	0	0	511	508	0	574	38	20	
5	0	0	0	0	509	507	0	563	38	20	
6	0	0	0	0	509	507	0	564	38	20	
7	0	0	0	0	510	508	0	564	38	20	
8	0	0	0	0	511	508	0	558	39	20	
9	0	0	0	0	511	508	0	551	38	20	
10	0	0	0	0	511	507	0	548	38	20	
11	0	0	0	0	511	507	0	566	38	20	
12	0	0	0	0	507	507	0	591	38	20	
13	0	0	0	0	508	508	0	612	38	20	
14	0	0	0	0	508	507	0	613	38	20	
15	0	0	0	0	506	509	0	587	38	20	
0	0	0	0	0	507	510	0	579	39	20	
1	0	0	0	0	511	510	0	572	38	20	
2	0	0	0	0	512	509	0	569	38	20	
3	0	0	0	0	512	508	0	580	38	20	
4	0	0	0	0	511	507	0	568	38	20	
5	0	0	0	0	509	508	0	556	38	20	
6	0	0	0	0	510	506	0	543	38	20	
7	0	0	0	0	508	506	0	542	38	20	
8	0	0	0	0	507	508	0	542	39	20	
9	0	0	0	0	508	508	0	541	38	20	
10	0	0	0	0	507	509	0	524	38	20	
11	0	0	0	0	508	508	0	499	38	20	
12	0	0	0	0	508	507	0	489	38	20	
13	0	0	0	0	508	507	0	493	38	20	
14	0	0	0	0	507	509	0	499	38	20	
15	0	0	0	0	508	509	0	509	38	20	
0	0	0	0	0	508	508	0	511	39	20	
1	0	0	0	0	509	509	0	522	38	20	
2	0	0	0	0	511	509	0	531	38	20	
3	0	0	0	0	509	509	0	530	38	20	
4	0	0	0	0	511	510	0	517	38	20	
5	0	0	0	0	514	510	0	506	38	20	
6	0	0	0	0	513	508	0	491	38	20	
7	0	0	0	0	512	508	0	478	38	20	
8	0	0	0	0	513	509	0	484	39	20	
9	0	0	0	0	512	508	0	495	38	20	
10	0	0	0	0	510	509	0	499	38	20	
11	0	0	0	0	510	508	0	511	38	20	
12	0	0	0	0	508	509	0	522	38	20	
13	0	0	0	0	508	509	0	533	38	20	
14	0	0	0	0	511	508	0	543	38	20	
15	0	0	0	0	511	509	0	546	38	20	
0	0	0	0	0	509	510	0	545	39	20	
1	0	0	0	0	507	510	0	539	38	20	
2	0	0	0	0	507	510	0	540	38	20	
3	0	0	0	0	507	508	0	561	38	20	
4	0	0	0	0	509	507	0	573	38	20	
5	0	0	0	0	508	508	0	573	38	20	
6	0	0	0	0	507	508	0	579	38	20	
7	0	0	0	0	508	509	0	582	38	20	
8	0	0	0	0	507	510	0	587	39	20	
9	0	0	0	0	507	510	0	579	38	20	
10	0	0	0	0	508	509	0	566	38	20	
11	0	0	0	0	507	508	0	555	38	20	
12	0	0	0	0	510	508	0	543	38	20	
13	0	0	0	0	507	509	0	534	38	20	
14	0	0	0	0	507	510	0	522	38	20	
15	0	0	0	0	506	509	0	517	38	20	
0	0	0	0	0	507	509	0	530	39	20	
1	0	0	0	0	511	510	0	541	38	20	
2	0	0	0	0	505	509	0	543	38	20	
3	0	0	0	0	507	509	0	543	38	20	
4	0	0	0	0	510	509	0	542	38	20	
5	0	0	0	0	510	509	0	543	38	20	
6	0	0	0	0	510	509	0	551	38	20	
7	0	0	0	0	511	510	0	557	38	20	
8	0	0	0	0	514	512	0	565	39	20	
9	0	0	0	0	511	512	0	566	38	20	
10	0	0	0	0	513	511	0	563	38	20	
11	0	0	0	0	511	509	0	561	38	20	
12	0	0	0	0	510	509	0	556	38	20	
13	0	0	0	0	510	507	0	536	38	20	
14	0	0	0	0	511	507	0	512	38	20	
15	0	0	0	0	510	508	0	500	38	20	
0	0	0	0	0	510	508	0	495	39	20	
1	0	0	0	0	507	509	0	498	38	20	
2	0	0	0	0	508	507	0	515	38	20	
3	0	0	0	0	509	510	0	509	38	20	
4	0	0	0	0	511	511	0	526	38	20	
5	0	0	0	0	508	513	0	537	38	20	
6	0	0	0	0	507	513	0	555	38	20	
7	0	0	0	0	506	511	0	560	38	20	
8	0	0	0	0	506	510	0	560	39	20	
9	0	0	0	0	506	508	0	562	38	20	
10	0	0	0	0	509	508	0	555	38	20	
11	0	0	0	0	510	507	0	544	38	20	
12	0	0	0	0	508	507	0	523	38	20	
13	0	0	0	0	508	508	0	499	38	20	
14	0	0	0	0	511	508	0	483	38	20	
15	0	0	0	0	509	507	0	478	38	20	
0	0	0	0	0	507	505	0	491	39	20	
1	0	0	0	0	511	505	0	511	38	20	
2	0	0	0	0	511	505	0	535	38	20	
3	0	0	0	0	510	507	0	553	38	20	
4	0	0	0	0	510	506	0	563	38	20	
5	0	0	0	0	508	507	0	586	38	20	
6	0	0	0	0	505	507	0	597	38	20	
7	0	0	0	0	507	508	0	596	38	20	
8	0	0	0	0	509	508	0	588	39	20	
9	0	0	0	0	511	507	0	564	38	20	
10	0	0	0	0	511	508	0	554	38	20	
11	0	0	0	0	510	507	0	543	38	20	
12	0	0	0	0	511	509	0	539	38	20	
13	0	0	0	0	510	509	0	538	38	20	
14	0	0	0	0	510	508	0	543	38	20	
15	0	0	0	0	509	509	0	546	38	20	
0	0	0	0	0	508	508	0	529	39	20	
1	0	0	0	0	506	508	0	518	38	20	
2	0	0	0	0	509	510	0	512	38	20	
3	0	0	0	0	507	510	0	511	38	20	
4	0	0	0	0	507	509	0	504	38	20	
5	0	0	0	0	507	511	0	496	38	20	
6	0	0	0	0	505	511	0	490	38	20	
7	0	0	0	0	507	510	0	491	38	20	
8	0	0	0	0	506	509	0	497	39	20	
9	0	0	0	0	511	509	0	504	38	20	
10	0	0	0	0	513	507	0	496	38	20	
11	0	0	0	0	513	506	0	484	38	20	
12	0	0	0	0	512	505	0	484	38	20	
13	0	0	0	0	511	507	0	491	38	20	
14	0	0	0	0	511	508	0	497	38	20	
15	0	0	0	0	510	507	0	506	38	20	
0	0	0	0	0	510	507	0	488	39	20	
1	0	0	0	0	509	508	0	485	38	20	
2	0	0	0	0	505	508	0	498	38	20	
3	0	0	0	0	506	509	0	496	38	20	
4	0	0	0	0	509	508	0	508	38	20	
5	0	0	0	0	510	508	0	513	38	20	
6	0	0	0	0	510	508	0	514	38	20	
7	0	0	0	0	508	508	0	514	38	20	
8	0	0	0	0	510	508	0	491	39	20	
9	0	0	0	0	512	508	0	463	38	20	
10	0	0	0	0	512	509	0	448	38	20	
11	0	0	0	0	511	508	0	452	38	20	
12	0	0	0	0	512	507	0	460	38	20	
13	0	0	0	0	512	506	0	480	38	20	
14	0	0	0	0	509	506	0	508	38	20	
15	0	0	0	0	508	506	0	524	38	20	
0	0	0	0	0	509	507	0	521	39	20	
1	0	0	0	0	507	508	0	511	38	20	
2	0	0	0	0	507	505	0	508	38	20	
3	0	0	0	0	507	505	0	514	38	20	
4	0	0	0	0	509	508	0	513	38	20	
5	0	0	0	0	508	507	0	508	38	20	
6	0	0	0	0	512	508	0	504	38	20	
7	0	0	0	0	511	507	0	514	38	20	
8	0	0	0	0	507	506	0	528	39	20	
9	0	0	0	0	510	507	0	538	38	20	
10	0	0	0	0	510	506	0	536	38	20	
11	0	0	0	0	508	505	0	524	38	20	
12	0	0	0	0	511	505	0	500	38	20	
13	0	0	0	0	511	505	0	502	38	20	
14	0	0	0	0	508	506	0	515	38	20	
15	0	0	0	0	509	507	0	532	38	20	
0	0	0	0	0	508	506	0	550	39	20	
1	0	0	0	0	510	506	0	547	38	20	
2	0	0	0	0	509	505	0	549	38	20	
3	0	0	0	0	508	504	0	548	38	20	
4	0	0	0	0	511	505	0	557	38	20	
5	0	0	0	0	511	507	0	571	38	20	
6	0	0	0	0	511	509	0	568	38	20	
7	0	0	0	0	510	507	0	567	38	20	
8	0	0	0	0	510	507	0	561	39	20	
9	0	0	0	0	506	507	0	553	38	20	
10	0	0	0	0	505	507	0	520	38	20	
11	0	0	0	0	512	506	0	516	38	20	
12	0	0	0	0	512	505	0	523	38	20	
13	0	0	0	0	508	504	0	531	38	20	
14	0	0	0	0	509	506	0	547	38	20	
15	0	0	0	0	508	505	0	558	38	20	
0	0	0	0	0	508	504	0	549	39	20	
1	0	0	0	0	509	504	0	533	38	20	
2	0	0	0	0	510	505	0	521	38	20	
3	0	0	0	0	511	507	0	509	38	20	
4	0	0	0	0	511	505	0	514	38	20	
5	0	0	0	0	511	504	0	507	38	20	
6	0	0	0	0	511	505	0	508	38	20	
7	0	0	0	0	509	505	0	510	38	20	
8	0	0	0	0	509	508	0	527	39	20	
9	0	0	0	0	507	507	0	539	38	20	
10	0	0	0	0	506	506	0	544	38	20	
11	0	0	0	0	509	505	0	528	38	20	
12	0	0	0	0	507	507	0	511	38	20	
13	0	0	0	0	510	507	0	499	38	20	
14	0	0	0	0	509	508	0	494	38	20	
15	0	0	0	0	508	509	0	486	38	20	
0	0	0	0	0	510	508	0	484	39	20	
1	0	0	0	0	508	508	0	488	38	20	
2	0	0	0	0	510	510	0	490	38	20	
3	0	0	0	0	508	510	0	498	38	20	
4	0	0	0	0	509	509	0	504	38	20	
5	0	0	0	0	511	509	0	484	38	20	
6	0	0	0	0	511	508	0	473	38	20	
7	0	0	0	0	510	508	0	470	38	20	
8	0	0	0	0	511	509	0	481	39	20	
9	0	0	0	0	510	510	0	510	38	20	
10	0	0	0	0	509	510	0	524	38	20	
11	0	0	0	0	508	510	0	524	38	20	
12	0	0	0	0	508	509	0	524	38	20	
13	0	0	0	0	509	510	0	525	38	20	
14	0	0	0	0	509	510	0	534	38	20	
15	0	0	0	0	510	512	0	539	38	20	
0	0	0	0	0	510	509	0	549	39	20	
1	0	0	0	0	509	508	0	559	38	20	
2	0	0	0	0	507	508	0	557	38	20	
3	0	0	0	0	505	508	0	548	38	20	
4	0	0	0	0	508	507	0	541	38	20	
5	0	0	0	0	508	508	0	529	38	20	
6	0	0	0	0	505	509	0	513	38	20	
7	0	0	0	0	505	509	0	495	38	20	
8	0	0	0	0	507	508	0	483	39	20	
9	0	0	0	0	509	509	0	474	38	20	
10	0	0	0	0	511	510	0	476	38	20	
11	0	0	0	0	512	510	0	493	38	20	
12	0	0	0	0	513	510	0	500	38	20	
13	0	0	0	0	512	512	0	513	38	20	
14	0	0	0	0	512	510	0	527	38	20	
15	0	0	0	0	511	509	0	540	38	20	
0	0	0	0	0	513	508	0	550	39	20	
1	0	0	0	0	511	508	0	556	38	20	
2	0	0	0	0	510	509	0	564	38	20	
3	0	0	0	0	511	509	0	561	38	20	
4	0	0	0	0	506	508	0	554	38	20	
5	0	0	0	0	508	510	0	541	38	20	
6	0	0	0	0	507	509	0	536	38	20	
7	0	0	0	0	508	508	0	527	38	20	
8	0	0	0	0	507	509	0	515	39	20	
9	0	0	0	0	508	509	0	505	38	20	
10	0	0	0	0	507	508	0	503	38	20	
11	0	0	0	0	512	508	0	511	38	20	
12	0	0	0	0	511	508	0	511	38	20	
13	0	0	0	0	508	509	0	499	38	20	
14	0	0	0	0	511	508	0	481	38	20	
15	0	0	0	0	510	507	0	478	38	20	
0	0	0	0	0	502	506	0	499	39	20	
1	0	0	0	0	504	506	0	497	38	20	
2	0	0	0	0	502	507	0	505	38	20	
3	0	0	0	0	505	508	0	515	38	20	
4	0	0	0	0	507	509	0	515	38	20	
5	0	0	0	0	508	508	0	515	38	20	
6	0	0	0	0	508	508	0	514	38	20	
7	0	0	0	0	511	508	0	506	38	20	
8	0	0	0	0	510	508	0	502	39	20	
9	0	0	0	0	511	509	0	494	38	20	
10	0	0	0	0	511	508	0	495	38	20	
11	0	0	0	0	507	508	0	492	38	20	
12	0	0	0	0	510	507	0	475	38	20	
13	0	0	0	0	513	507	0	472	38	20	
14	0	0	0	0	511	507	0	481	38	20	
15	0	0	0	0	510	507	0	494	38	20	
0	0	0	0	0	509	507	0	485	39	20	
1	0	0	0	0	509	506	0	463	38	20	
2	0	0	0	0	508	508	0	427	38	20	
3	0	0	0	0	507	508	0	419	38	20	
4	0	0	0	0	508	508	0	429	38	20	
5	0	0	0	0	507	508	0	430	38	20	
6	0	0	0	0	505	509	0	448	38	20	
7	0	0	0	0	505	508	0	483	38	20	
8	0	0	0	0	510	510	0	496	39	20	
9	0	0	0	0	510	508	0	497	38	20	
10	0	0	0	0	510	507	0	502	38	20	
11	0	0	0	0	512	508	0	496	38	20	
12	0	0	0	0	511	508	0	496	38	20	
13	0	0	0	0	511	508	0	514	38	20	
14	0	0	0	0	512	510	0	531	38	20	
15	0	0	0	0	509	508	0	530	38	20	
0	0	0	0	0	511	506	0	524	39	20	
1	0	0	0	0	511	505	0	524	38	20	
2	0	0	0	0	509	506	0	522	38	20	
3	0	0	0	0	509	507	0	518	38	20	
4	0	0	0	0	511	507	0	511	38	20	
5	0	0	0	0	509	508	0	499	38	20	
6	0	0	0	0	509	507	0	501	38	20	
7	0	0	0	0	509	508	0	518	38	20	
8	0	0	0	0	511	508	0	533	39	20	
9	0	0	0	0	510	508	0	516	38	20	
10	0	0	0	0	511	509	0	495	38	20	
11	0	0	0	0	512	508	0	497	38	20	
12	0	0	0	0	512	509	0	509	38	20	
13	0	0	0	0	510	508	0	522	38	20	
14	0	0	0	0	510	507	0	542	38	20	
15	0	0	0	0	511	505	0	562	38	20	
0	0	0	0	0	513	506	0	562	39	20	
1	0	0	0	0	513	507	0	551	38	20	
2	0	0	0	0	512	506	0	547	38	20	
3	0	0	0	0	511	507	0	536	38	20	
4	0	0	0	0	511	508	0	521	38	20	
5	0	0	0	0	511	508	0	511	38	20	
6	0	0	0	0	508	508	0	499	38	20	
7	0	0	0	0	509	508	0	506	38	20	
8	0	0	0	0	506	507	0	529	39	20	
9	0	0	0	0	507	506	0	539	38	20	
10	0	0	0	0	507	505	0	546	38	20	
11	0	0	0	0	508	506	0	546	38	20	
12	0	0	0	0	510	506	0	551	38	20	
13	0	0	0	0	510	507	0	572	38	20	
14	0	0	0	0	505	506	0	583	38	20	
15	0	0	0	0	507	506	0	583	38	20	
0	0	0	0	0	510	509	0	586	39	20	
1	0	0	0	0	512	509	0	586	38	20	
2	0	0	0	0	508	509	0	570	38	20	
3	0	0	0	0	509	509	0	556	38	20	
4	0	0	0	0	512	511	0	545	38	20	
5	0	0	0	0	511	510	0	536	38	20	
6	0	0	0	0	506	511	0	531	38	20	
7	0	0	0	0	507	511	0	519	38	20	
8	0	0	0	0	508	510	0	501	39	20	
9	0	0	0	0	507	509	0	489	38	20	
10	0	0	0	0	506	509	0	481	38	20	
11	0	0	0	0	506	508	0	475	38	20	
12	0	0	0	0	508	510	0	463	38	20	
13	0	0	0	0	507	509	0	473	38	20	
14	0	0	0	0	511	508	0	498	38	20	
15	0	0	0	0	511	508	0	524	38	20	
0	0	0	0	0	511	506	0	538	39	20	
1	0	0	0	0	510	509	0	530	38	20	
2	0	0	0	0	508	507	0	524	38	20	
3	0	0	0	0	508	506	0	514	38	20	
4	0	0	0	0	512	505	0	492	38	20	
5	0	0	0	0	510	507	0	470	38	20	
6	0	0	0	0	509	508	0	450	38	20	
7	0	0	0	0	509	508	0	443	38	20	
8	0	0	0	0	506	508	0	449	39	20	
9	0	0	0	0	506	508	0	468	38	20	
10	0	0	0	0	508	510	0	487	38	20	
11	0	0	0	0	507	511	0	490	38	20	
12	0	0	0	0	508	511	0	483	38	20	
13	0	0	0	0	505	510	0	472	38	20	
14	0	0	0	0	508	510	0	465	38	20	
15	0	0	0	0	507	509	0	462	38	20	
0	0	0	0	0	505	509	0	451	39	20	
1	0	0	0	0	508	510	0	462	38	20	
2	0	0	0	0	511	508	0	477	38	20	
3	0	0	0	0	512	510	0	500	38	20	
4	0	0	0	0	511	510	0	511	38	20	
5	0	0	0	0	511	510	0	508	38	20	
6	0	0	0	0	509	509	0	506	38	20	
7	0	0	0	0	510	509	0	510	38	20	
8	0	0	0	0	511	510	0	522	39	20	
9	0	0	0	0	511	510	0	538	38	20	
10	0	0	0	0	510	510	0	531	38	20	
11	0	0	0	0	512	509	0	519	38	20	
12	0	0	0	0	511	510	0	520	38	20	
13	0	0	0	0	505	510	0	521	38	20	
14	0	0	0	0	505	511	0	520	38	20	
15	0	0	0	0	507	511	0	532	38	20	
0	0	0	0	0	507	510	0	534	39	20	
1	0	0	0	0	511	510	0	524	38	20	
2	0	0	0	0	509	510	0	515	38	20	
3	0	0	0	0	510	508	0	502	38	20	
4	0	0	0	0	512	509	0	512	38	20	
5	0	0	0	0	512	508	0	536	38	20	
6	0	0	0	0	511	508	0	559	38	20	
7	0	0	0	0	511	508	0	562	38	20	
8	0	0	0	0	511	507	0	547	39	20	
9	0	0	0	0	512	508	0	530	38	20	
10	0	0	0	0	512	509	0	519	38	20	
11	0	0	0	0	511	511	0	525	38	20	
12	0	0	0	0	511	509	0	533	38	20	
13	0	0	0	0	509	508	0	541	38	20	
14	0	0	0	0	508	507	0	532	38	20	
15	0	0	0	0	507	508	0	510	38	20	
0	0	0	0	0	510	508	0	489	39	20	
1	0	0	0	0	510	510	0	477	38	20	
2	0	0	0	0	508	510	0	471	38	20	
3	0	0	0	0	511	509	0	474	38	20	
4	0	0	0	0	510	510	0	467	38	20	
5	0	0	0	0	511	508	0	461	38	20	
6	0	0	0	0	508	509	0	462	38	20	
7	0	0	0	0	508	510	0	481	38	20	
8	0	0	0	0	504	510	0	477	39	20	
9	0	0	0	0	505	510	0	466	38	20	
10	0	0	0	0	508	508	0	463	38	20	
11	0	0	0	0	507	508	0	463	38	20	
12	0	0	0	0	509	507	0	479	38	20	
13	0	0	0	0	511	507	0	489	38	20	
14	0	0	0	0	510	507	0	507	38	20	
15	0	0	0	0	511	506	0	524	38	20	
0	0	0	0	0	511	509	0	543	39	20	
1	0	0	0	0	508	508	0	552	38	20	
2	0	0	0	0	508	508	0	530	38	20	
3	0	0	0	0	503	508	0	519	38	20	
4	0	0	0	0	504	507	0	519	38	20	
5	0	0	0	0	506	506	0	531	38	20	
6	0	0	0	0	506	508	0	554	38	20	
7	0	0	0	0	505	507	0	528	38	20	
8	0	0	0	0	507	506	0	504	39	20	
9	0	0	0	0	510	506	0	489	38	20	
10	0	0	0	0	511	507	0	483	38	20	
11	0	0	0	0	511	509	0	490	38	20	
12	0	0	0	0	510	507	0	491	38	20	
13	0	0	0	0	510	507	0	499	38	20	
14	0	0	0	0	511	508	0	508	38	20	
15	0	0	0	0	510	507	0	511	38	20	
0	0	0	0	0	508	506	0	508	39	20	
1	0	0	0	0	510	507	0	512	38	20	
2	0	0	0	0	511	507	0	496	38	20	
3	0	0	0	0	511	508	0	476	38	20	
4	0	0	0	0	508	509	0	471	38	20	
5	0	0	0	0	509	509	0	481	38	20	
6	0	0	0	0	510	510	0	496	38	20	
7	0	0	0	0	506	510	0	507	38	20	
8	0	0	0	0	510	509	0	509	39	20	
9	0	0	0	0	510	508	0	509	38	20	
10	0	0	0	0	511	508	0	506	38	20	
11	0	0	0	0	509	509	0	514	38	20	
12	0	0	0	0	507	508	0	515	38	20	
13	0	0	0	0	504	507	0	516	38	20	
14	0	0	0	0	503	509	0	523	38	20	
15	0	0	0	0	505	508	0	500	38	20	
0	0	0	0	0	503	508	0	483	39	20	
1	0	0	0	0	505	507	0	467	38	20	
2	0	0	0	0	507	507	0	465	38	20	
3	0	0	0	0	509	508	0	477	38	20	
4	0	0	0	0	510	507	0	495	38	20	
5	0	0	0	0	510	505	0	512	38	20	
6	0	0	0	0	511	504	0	517	38	20	
7	0	0	0	0	513	505	0	512	38	20	
8	0	0	0	0	511	507	0	504	39	20	
9	0	0	0	0	509	507	0	498	38	20	
10	0	0	0	0	510	508	0	491	38	20	
11	0	0	0	0	511	508	0	483	38	20	
12	0	0	0	0	510	508	0	484	38	20	
13	0	0	0	0	512	508	0	487	38	20	
14	0	0	0	0	511	507	0	482	38	20	
15	0	0	0	0	511	507	0	475	38	20	
0	0	0	0	0	509	507	0	476	39	20	
1	0	0	0	0	509	507	0	488	38	20	
2	0	0	0	0	509	507	0	499	38	20	
3	0	0	0	0	508	505	0	505	38	20	
4	0	0	0	0	508	504	0	504	38	20	
5	0	0	0	0	508	504	0	504	38	20	
6	0	0	0	0	512	503	0	514	38	20	
7	0	0	0	0	514	504	0	521	38	20	
8	0	0	0	0	513	505	0	529	39	20	
9	0	0	0	0	513	505	0	531	38	20	
10	0	0	0	0	510	506	0	527	38	20	
11	0	0	0	0	510	508	0	524	38	20	
12	0	0	0	0	510	509	0	521	38	20	
13	0	0	0	0	508	509	0	521	38	20	
14	0	0	0	0	505	508	0	508	38	20	
15	0	0	0	0	511	508	0	501	38	20	
0	0	0	0	0	508	508	0	491	39	20	
1	0	0	0	0	510	508	0	489	38	20	
2	0	0	0	0	509	508	0	489	38	20	
3	0	0	0	0	509	510	0	476	38	20	
4	0	0	0	0	512	509	0	476	38	20	
5	0	0	0	0	508	509	0	479	38	20	
6	0	0	0	0	509	509	0	468	38	20	
7	0	0	0	0	511	508	0	471	38	20	
8	0	0	0	0	510	508	0	462	39	20	
9	0	0	0	0	510	509	0	466	38	20	
10	0	0	0	0	512	508	0	487	38	20	
11	0	0	0	0	508	508	0	499	38	20	
12	0	0	0	0	507	508	0	516	38	20	
13	0	0	0	0	505	507	0	499	38	20	
14	0	0	0	0	507	507	0	491	38	20	
15	0	0	0	0	511	506	0	504	38	20	
0	0	0	0	0	507	505	0	531	39	20	
1	0	0	0	0	508	505	0	539	38	20	
2	0	0	0	0	510	505	0	519	38	20	
3	0	0	0	0	510	506	0	504	38	20	
4	0	0	0	0	510	505	0	489	38	20	
5	0	0	0	0	511	506	0	488	38	20	
6	0	0	0	0	512	505	0	488	38	20	
7	0	0	0	0	511	507	0	475	38	20	
8	0	0	0	0	511	506	0	470	39	20	
9	0	0	0	0	511	506	0	485	38	20	
10	0	0	0	0	514	508	0	512	38	20	
11	0	0	0	0	511	508	0	543	38	20	
12	0	0	0	0	511	508	0	574	38	20	
13	0	0	0	0	509	507	0	588	38	20	
14	0	0	0	0	508	506	0	594	38	20	
15	0	0	0	0	508	507	0	593	38	20	
0	0	0	0	0	508	509	0	590	39	20	
1	0	0	0	0	509	509	0	577	38	20	
2	0	0	0	0	511	508	0	560	38	20	
3	0	0	0	0	510	509	0	558	38	20	
4	0	0	0	0	508	507	0	555	38	20	
5	0	0	0	0	505	507	0	562	38	20	
6	0	0	0	0	505	508	0	560	38	20	
7	0	0	0	0	503	510	0	544	38	20	
8	0	0	0	0	505	510	0	533	39	20	
9	0	0	0	0	509	508	0	535	38	20	
10	0	0	0	0	505	508	0	545	38	20	
11	0	0	0	0	508	508	0	538	38	20	
12	0	0	0	0	509	507	0	516	38	20	
13	0	0	0	0	509	505	0	497	38	20	
14	0	0	0	0	510	505	0	488	38	20	
15	0	0	0	0	511	506	0	485	38	20	
0	0	0	0	0	509	508	0	480	39	20	
1	0	0	0	0	510	507	0	461	38	20	
2	0	0	0	0	513	505	0	466	38	20	
3	0	0	0	0	514	506	0	476	38	20	
4	0	0	0	0	512	504	0	483	38	20	
5	0	0	0	0	508	505	0	489	38	20	
6	0	0	0	0	510	506	0	488	38	20	
7	0	0	0	0	510	506	0	480	38	20	
8	0	0	0	0	508	506	0	482	39	20	
9	0	0	0	0	509	505	0	489	38	20	
10	0	0	0	0	510	507	0	494	38	20	
11	0	0	0	0	509	505	0	492	38	20	
12	0	0	0	0	508	507	0	499	38	20	
13	0	0	0	0	509	508	0	500	38	20	
14	0	0	0	0	508	508	0	490	38	20	
15	0	0	0	0	508	508	0	496	38	20	
0	0	0	0	0	508	508	0	498	39	20	
1	0	0	0	0	509	508	0	491	38	20	
2	0	0	0	0	508	510	0	495	38	20	
3	0	0	0	0	509	509	0	518	38	20	
4	0	0	0	0	510	508	0	545	38	20	
5	0	0	0	0	510	507	0	560	38	20	
6	0	0	0	0	512	505	0	564	38	20	
7	0	0	0	0	512	506	0	567	38	20	
8	0	0	0	0	509	506	0	565	39	20	
9	0	0	0	0	511	507	0	545	38	20	
10	0	0	0	0	509	505	0	530	38	20	
11	0	0	0	0	510	504	0	526	38	20	
12	0	0	0	0	511	506	0	518	38	20	
13	0	0	0	0	506	504	0	528	38	20	
14	0	0	0	0	507	504	0	543	38	20	
15	0	0	0	0	509	505	0	550	38	20	
0	0	0	0	0	507	507	0	555	39	20	
1	0	0	0	0	507	507	0	551	38	20	
2	0	0	0	0	507	506	0	552	38	20	
3	0	0	0	0	510	507	0	550	38	20	
4	0	0	0	0	510	509	0	557	38	20	
5	0	0	0	0	510	508	0	554	38	20	
6	0	0	0	0	511	508	0	551	38	20	
7	0	0	0	0	508	507	0	551	38	20	
8	0	0	0	0	509	507	0	548	39	20	
9	0	0	0	0	506	507	0	535	38	20	
10	0	0	0	0	506	506	0	511	38	20	
11	0	0	0	0	508	506	0	508	38	20	
12	0	0	0	0	509	505	0	523	38	20	
13	0	0	0	0	508	507	0	529	38	20	
14	0	0	0	0	505	507	0	540	38	20	
15	0	0	0	0	507	508	0	545	38	20	
0	0	0	0	0	508	506	0	545	39	20	
1	0	0	0	0	508	507	0	549	38	20	
2	0	0	0	0	509	507	0	536	38	20	
3	0	0	0	0	508	507	0	540	38	20	
4	0	0	0	0	507	508	0	554	38	20	
5	0	0	0	0	509	508	0	568	38	20	
6	0	0	0	0	507	507	0	577	38	20	
7	0	0	0	0	508	506	0	568	38	20	
8	0	0	0	0	508	506	0	538	39	20	
9	0	0	0	0	508	508	0	525	38	20	
10	0	0	0	0	510	507	0	517	38	20	
11	0	0	0	0	511	506	0	500	38	20	
12	0	0	0	0	511	508	0	498	38	20	
13	0	0	0	0	510	507	0	510	38	20	
14	0	0	0	0	509	507	0	509	38	20	
15	0	0	0	0	508	505	0	496	38	20	
0	0	0	0	0	509	506	0	483	39	20	
1	0	0	0	0	507	505	0	489	38	20	
2	0	0	0	0	512	505	0	494	38	20	
3	0	0	0	0	511	504	0	498	38	20	
4	0	0	0	0	512	507	0	503	38	20	
5	0	0	0	0	514	507	0	513	38	20	
6	0	0	0	0	510	509	0	527	38	20	
7	0	0	0	0	510	509	0	531	38	20	
8	0	0	0	0	509	508	0	535	39	20	
9	0	0	0	0	511	510	0	536	38	20	
10	0	0	0	0	510	508	0	538	38	20	
11	0	0	0	0	508	507	0	530	38	20	
12	0	0	0	0	508	506	0	525	38	20	
13	0	0	0	0	509	507	0	510	38	20	
14	0	0	0	0	512	508	0	507	38	20	
15	0	0	0	0	511	509	0	510	38	20	
0	0	0	0	0	511	510	0	522	39	20	
1	0	0	0	0	511	510	0	518	38	20	
2	0	0	0	0	507	509	0	508	38	20	
3	0	0	0	0	509	510	0	504	38	20	
4	0	0	0	0	510	511	0	488	38	20	
5	0	0	0	0	509	510	0	475	38	20	
6	0	0	0	0	508	509	0	466	38	20	
7	0	0	0	0	512	509	0	466	38	20	
8	0	0	0	0	511	510	0	477	39	20	
9	0	0	0	0	510	509	0	468	38	20	
10	0	0	0	0	510	508	0	470	38	20	
11	0	0	0	0	510	509	0	484	38	20	
12	0	0	0	0	511	510	0	485	38	20	
13	0	0	0	0	509	510	0	485	38	20	
14	0	0	0	0	509	510	0	482	38	20	
15	0	0	0	0	506	508	0	473	38	20	
0	0	0	0	0	507	508	0	462	39	20	
1	0	0	0	0	508	506	0	470	38	20	
2	0	0	0	0	511	506	0	480	38	20	
3	0	0	0	0	509	506	0	489	38	20	
4	0	0	0	0	511	505	0	483	38	20	
5	0	0	0	0	511	507	0	490	38	20	
6	0	0	0	0	512	506	0	492	38	20	
7	0	0	0	0	514	507	0	490	38	20	
8	0	0	0	0	512	505	0	487	39	20	
9	0	0	0	0	512	506	0	482	38	20	
10	0	0	0	0	512	504	0	483	38	20	
11	0	0	0	0	508	504	0	483	38	20	
12	0	0	0	0	508	507	0	487	38	20	
13	0	0	0	0	509	506	0	501	38	20	
14	0	0	0	0	509	507	0	499	38	20	
15	0	0	0	0	508	507	0	491	38	20	
0	0	0	0	0	506	506	0	474	39	20	
1	0	0	0	0	508	507	0	460	38	20	
2	0	0	0	0	505	507	0	469	38	20	
3	0	0	0	0	507	509	0	474	38	20	
4	0	0	0	0	508	511	0	478	38	20	
5	0	0	0	0	507	511	0	489	38	20	
6	0	0	0	0	506	512	0	497	38	20	
7	0	0	0	0	507	511	0	491	38	20	
8	0	0	0	0	509	511	0	476	39	20	
9	0	0	0	0	508	510	0	472	38	20	
10	0	0	0	0	510	509	0	488	38	20	
11	0	0	0	0	512	510	0	500	38	20	
12	0	0	0	0	511	510	0	505	38	20	
13	0	0	0	0	511	509	0	489	38	20	
14	0	0	0	0	512	508	0	478	38	20	
15	0	0	0	0	511	507	0	471	38	20	
0	0	0	0	0	511	505	0	453	39	20	
1	0	0	0	0	509	505	0	455	38	20	
2	0	0	0	0	508	506	0	454	38	20	
3	0	0	0	0	508	507	0	470	38	20	
4	0	0	0	0	508	507	0	481	38	20	
5	0	0	0	0	509	507	0	476	38	20	
6	0	0	0	0	513	507	0	489	38	20	
7	0	0	0	0	513	507	0	496	38	20	
8	0	0	0	0	511	508	0	503	39	20	
9	0	0	0	0	508	508	0	507	38	20	
10	0	0	0	0	509	508	0	507	38	20	
11	0	0	0	0	510	508	0	506	38	20	
12	0	0	0	0	510	507	0	501	38	20	
13	0	0	0	0	508	507	0	491	38	20	
14	0	0	0	0	506	508	0	483	38	20	
15	0	0	0	0	507	507	0	482	38	20	
0	0	0	0	0	509	506	0	488	39	20	
1	0	0	0	0	506	507	0	500	38	20	
2	0	0	0	0	507	506	0	517	38	20	
3	0	0	0	0	509	507	0	519	38	20	
4	0	0	0	0	509	508	0	520	38	20	
5	0	0	0	0	508	508	0	524	38	20	
6	0	0	0	0	507	509	0	528	38	20	
7	0	0	0	0	508	507	0	520	38	20	
8	0	0	0	0	506	507	0	497	39	20	
9	0	0	0	0	510	508	0	498	38	20	
10	0	0	0	0	508	508	0	503	38	20	
11	0	0	0	0	506	508	0	503	38	20	
12	0	0	0	0	506	509	0	496	38	20	
13	0	0	0	0	510	511	0	485	38	20	
14	0	0	0	0	512	509	0	490	38	20	
15	0	0	0	0	514	509	0	491	38	20	
0	0	0	0	0	515	511	0	493	39	20	
1	0	0	0	0	513	512	0	504	38	20	
2	0	0	0	0	510	511	0	497	38	20	
3	0	0	0	0	511	509	0	490	38	20	
4	0	0	0	0	510	508	0	479	38	20	
5	0	0	0	0	511	508	0	482	38	20	
6	0	0	0	0	510	509	0	501	38	20	
7	0	0	0	0	507	508	0	517	38	20	
8	0	0	0	0	507	508	0	533	39	20	
9	0	0	0	0	507	508	0	544	38	20	
10	0	0	0	0	507	508	0	566	38	20	
11	0	0	0	0	511	509	0	576	38	20	
12	0	0	0	0	510	510	0	583	38	20	
13	0	0	0	0	504	511	0	590	38	20	
14	0	0	0	0	501	510	0	594	38	20	
15	0	0	0	0	503	511	0	589	38	20	
0	0	0	0	0	508	510	0	580	39	20	
1	0	0	0	0	511	510	0	585	38	20	
2	0	0	0	0	512	509	0	588	38	20	
3	0	0	0	0	508	508	0	575	38	20	
4	0	0	0	0	508	508	0	576	38	20	
5	0	0	0	0	511	510	0	577	38	20	
6	0	0	0	0	510	509	0	569	38	20	
7	0	0	0	0	510	508	0	561	38	20	
8	0	0	0	0	510	509	0	549	39	20	
9	0	0	0	0	510	509	0	545	38	20	
10	0	0	0	0	512	509	0	551	38	20	
11	0	0	0	0	512	510	0	566	38	20	
12	0	0	0	0	512	512	0	580	38	20	
13	0	0	0	0	509	510	0	583	38	20	
14	0	0	0	0	509	510	0	574	38	20	
15	0	0	0	0	507	509	0	557	38	20	
0	0	0	0	0	506	509	0	543	39	20	
1	0	0	0	0	510	509	0	539	38	20	
2	0	0	0	0	507	508	0	538	38	20	
3	0	0	0	0	508	509	0	530	38	20	
4	0	0	0	0	507	509	0	514	38	20	
5	0	0	0	0	508	508	0	496	38	20	
6	0	0	0	0	508	508	0	495	38	20	
7	0	0	0	0	506	508	0	506	38	20	
8	0	0	0	0	507	509	0	525	39	20	
9	0	0	0	0	507	507	0	521	38	20	
10	0	0	0	0	510	506	0	523	38	20	
11	0	0	0	0	510	507	0	526	38	20	
12	0	0	0	0	510	506	0	529	38	20	
13	0	0	0	0	510	506	0	514	38	20	
14	0	0	0	0	511	507	0	497	38	20	
15	0	0	0	0	508	508	0	489	38	20	
0	0	0	0	0	507	509	0	481	39	20	
1	0	0	0	0	508	509	0	480	38	20	
2	0	0	0	0	511	508	0	474	38	20	
3	0	0	0	0	511	508	0	473	38	20	
4	0	0	0	0	512	509	0	475	38	20	
5	0	0	0	0	512	508	0	480	38	20	
6	0	0	0	0	512	508	0	496	38	20	
7	0	0	0	0	510	509	0	506	38	20	
8	0	0	0	0	509	508	0	503	39	20	
9	0	0	0	0	507	508	0	512	38	20	
10	0	0	0	0	507	508	0	525	38	20	
11	0	0	0	0	510	508	0	521	38	20	
12	0	0	0	0	509	507	0	519	38	20	
13	0	0	0	0	507	507	0	523	38	20	
14	0	0	0	0	509	508	0	545	38	20	
15	0	0	0	0	511	508	0	562	38	20	
0	0	0	0	0	510	507	0	575	39	20	
1	0	0	0	0	511	508	0	577	38	20	
2	0	0	0	0	509	507	0	582	38	20	
3	0	0	0	0	508	507	0	573	38	20	
4	0	0	0	0	511	508	0	568	38	20	
5	0	0	0	0	511	508	0	572	38	20	
6	0	0	0	0	509	510	0	569	38	20	
7	0	0	0	0	510	509	0	540	38	20	
8	0	0	0	0	511	508	0	523	39	20	
9	0	0	0	0	511	509	0	507	38	20	
10	0	0	0	0	508	508	0	508	38	20	
11	0	0	0	0	510	508	0	509	38	20	
12	0	0	0	0	509	508	0	518	38	20	
13	0	0	0	0	507	509	0	527	38	20	
14	0	0	0	0	509	510	0	526	38	20	
15	0	0	0	0	507	508	0	520	38	20	
0	0	0	0	0	507	508	0	512	39	20	
1	0	0	0	0	508	508	0	487	38	20	
2	0	0	0	0	507	505	0	467	38	20	
3	0	0	0	0	509	507	0	471	38	20	
4	0	0	0	0	510	508	0	496	38	20	
5	0	0	0	0	509	508	0	502	38	20	
6	0	0	0	0	510	507	0	504	38	20	
7	0	0	0	0	508	508	0	514	38	20	
8	0	0	0	0	509	508	0	526	39	20	
9	0	0	0	0	507	509	0	543	38	20	
10	0	0	0	0	509	509	0	552	38	20	
11	0	0	0	0	510	509	0	547	38	20	
12	0	0	0	0	511	507	0	528	38	20	
13	0	0	0	0	508	508	0	503	38	20	
14	0	0	0	0	509	508	0	473	38	20	
15	0	0	0	0	508	510	0	464	38	20	
0	0	0	0	0	507	511	0	452	39	20	
1	0	0	0	0	510	511	0	448	38	20	
2	0	0	0	0	508	510	0	453	38	20	
3	0	0	0	0	507	507	0	455	38	20	
4	0	0	0	0	508	506	0	451	38	20	
5	0	0	0	0	508	505	0	448	38	20	
6	0	0	0	0	511	506	0	461	38	20	
7	0	0	0	0	513	506	0	482	38	20	
8	0	0	0	0	512	507	0	504	39	20	
9	0	0	0	0	513	507	0	525	38	20	
10	0	0	0	0	511	506	0	537	38	20	
11	0	0	0	0	508	505	0	544	38	20	
12	0	0	0	0	509	506	0	561	38	20	
13	0	0	0	0	506	508	0	572	38	20	
14	0	0	0	0	509	508	0	582	38	20	
15	0	0	0	0	509	507	0	585	38	20	
0	0	0	0	0	508	507	0	576	39	20	
1	0	0	0	0	508	506	0	559	38	20	
2	0	0	0	0	511	509	0	542	38	20	
3	0	0	0	0	510	510	0	529	38	20	
4	0	0	0	0	510	510	0	537	38	20	
5	0	0	0	0	510	510	0	555	38	20	
6	0	0	0	0	511	510	0	572	38	20	
7	0	0	0	0	507	510	0	562	38	20	
8	0	0	0	0	507	510	0	571	39	20	
9	0	0	0	0	507	508	0	580	38	20	
10	0	0	0	0	506	506	0	592	38	20	
11	0	0	0	0	507	506	0	600	38	20	
12	0	0	0	0	508	504	0	607	38	20	
13	0	0	0	0	508	506	0	603	38	20	
14	0	0	0	0	511	507	0	592	38	20	
15	0	0	0	0	511	506	0	571	38	20	
0	0	0	0	0	513	507	0	549	39	20	
1	0	0	0	0	512	505	0	541	38	20	
2	0	0	0	0	510	505	0	545	38	20	
3	0	0	0	0	509	505	0	544	38	20	
4	0	0	0	0	511	508	0	540	38	20	
5	0	0	0	0	509	508	0	532	38	20	
6	0	0	0	0	508	508	0	531	38	20	
7	0	0	0	0	512	508	0	520	38	20	
8	0	0	0	0	509	507	0	507	39	20	
9	0	0	0	0	508	508	0	494	38	20	
10	0	0	0	0	509	508	0	502	38	20	
11	0	0	0	0	507	509	0	510	38	20	
12	0	0	0	0	510	511	0	516	38	20	
13	0	0	0	0	507	510	0	535	38	20	
14	0	0	0	0	505	507	0	560	38	20	
15	0	0	0	0	509	506	0	583	38	20	
0	0	0	0	0	511	506	0	595	39	20	
1	0	0	0	0	510	505	0	585	38	20	
2	0	0	0	0	509	505	0	562	38	20	
3	0	0	0	0	511	507	0	546	38	20	
4	0	0	0	0	511	507	0	543	38	20	
5	0	0	0	0	511	506	0	543	38	20	
6	0	0	0	0	512	508	0	524	38	20	
7	0	0	0	0	511	507	0	514	38	20	
8	0	0	0	0	511	508	0	517	39	20	
9	0	0	0	0	511	510	0	515	38	20	
10	0	0	0	0	510	510	0	513	38	20	
11	0	0	0	0	509	511	0	499	38	20	
12	0	0	0	0	507	511	0	504	38	20	
13	0	0	0	0	509	511	0	524	38	20	
14	0	0	0	0	512	509	0	538	38	20	
15	0	0	0	0	510	509	0	551	38	20	
0	0	0	0	0	507	508	0	555	39	20	
1	0	0	0	0	508	510	0	562	38	20	
2	0	0	0	0	507	509	0	566	38	20	
3	0	0	0	0	506	508	0	563	38	20	
4	0	0	0	0	507	508	0	555	38	20	
5	0	0	0	0	507	508	0	539	38	20	
6	0	0	0	0	508	508	0	533	38	20	
7	0	0	0	0	509	509	0	522	38	20	
8	0	0	0	0	511	509	0	509	39	20	
9	0	0	0	0	511	510	0	506	38	20	
10	0	0	0	0	509	509	0	527	38	20	
11	0	0	0	0	511	509	0	545	38	20	
12	0	0	0	0	511	508	0	556	38	20	
13	0	0	0	0	509	508	0	552	38	20	
14	0	0	0	0	509	508	0	538	38	20	
15	0	0	0	0	511	508	0	521	38	20	
0	0	0	0	0	512	508	0	511	39	20	
1	0	0	0	0	511	508	0	510	38	20	
2	0	0	0	0	509	508	0	515	38	20	
3	0	0	0	0	509	508	0	522	38	20	
4	0	0	0	0	509	507	0	526	38	20	
5	0	0	0	0	508	508	0	531	38	20	
6	0	0	0	0	510	509	0	523	38	20	
7	0	0	0	0	507	508	0	517	38	20	
8	0	0	0	0	509	506	0	530	39	20	
9	0	0	0	0	508	507	0	543	38	20	
10	0	0	0	0	508	507	0	542	38	20	
11	0	0	0	0	509	509	0	522	38	20	
12	0	0	0	0	509	510	0	504	38	20	
13	0	0	0	0	509	510	0	491	38	20	
14	0	0	0	0	510	509	0	476	38	20	
15	0	0	0	0	507	509	0	470	38	20	
0	0	0	0	0	509	510	0	481	39	20	
1	0	0	0	0	510	509	0	505	38	20	
2	0	0	0	0	509	508	0	523	38	20	
3	0	0	0	0	509	506	0	540	38	20	
4	0	0	0	0	510	504	0	536	38	20	
5	0	0	0	0	513	505	0	521	38	20	
6	0	0	0	0	510	504	0	504	38	20	
7	0	0	0	0	509	504	0	496	38	20	
8	0	0	0	0	510	505	0	501	39	20	
9	0	0	0	0	512	505	0	504	38	20	
10	0	0	0	0	508	504	0	519	38	20	
11	0	0	0	0	507	504	0	524	38	20	
12	0	0	0	0	510	505	0	531	38	20	
13	0	0	0	0	511	505	0	534	38	20	
14	0	0	0	0	514	506	0	526	38	20	
15	0	0	0	0	510	508	0	532	38	20	
0	0	0	0	0	510	508	0	532	39	20	
1	0	0	0	0	508	508	0	521	38	20	
2	0	0	0	0	505	508	0	514	38	20	
3	0	0	0	0	505	508	0	504	38	20	
4	0	0	0	0	504	510	0	508	38	20	
5	0	0	0	0	506	512	0	528	38	20	
6	0	0	0	0	507	512	0	530	38	20	
7	0	0	0	0	508	511	0	513	38	20	
8	0	0	0	0	509	509	0	505	39	20	
9	0	0	0	0	510	507	0	502	38	20	
10	0	0	0	0	508	507	0	497	38	20	
11	0	0	0	0	507	509	0	482	38	20	
12	0	0	0	0	511	509	0	473	38	20	
13	0	0	0	0	513	509	0	477	38	20	
14	0	0	0	0	513	508	0	473	38	20	
15	0	0	0	0	512	508	0	467	38	20	
0	0	0	0	0	511	508	0	477	39	20	
1	0	0	0	0	510	508	0	475	38	20	
2	0	0	0	0	508	508	0	461	38	20	
3	0	0	0	0	511	508	0	452	38	20	
4	0	0	0	0	510	508	0	447	38	20	
5	0	0	0	0	510	508	0	438	38	20	
6	0	0	0	0	513	509	0	437	38	20	
7	0	0	0	0	512	508	0	442	38	20	
8	0	0	0	0	511	509	0	453	39	20	
9	0	0	0	0	510	508	0	459	38	20	
10	0	0	0	0	511	509	0	471	38	20	
11	0	0	0	0	511	507	0	476	38	20	
12	0	0	0	0	510	507	0	491	38	20	
13	0	0	0	0	507	507	0	495	38	20	
14	0	0	0	0	507	508	0	499	38	20	
15	0	0	0	0	508	508	0	490	38	20	
0	0	0	0	0	506	507	0	467	39	20	
1	0	0	0	0	507	508	0	451	38	20	
2	0	0	0	0	504	508	0	439	38	20	
3	0	0	0	0	507	507	0	441	38	20	
4	0	0	0	0	510	507	0	459	38	20	
5	0	0	0	0	508	508	0	479	38	20	
6	0	0	0	0	508	508	0	494	38	20	
7	0	0	0	0	508	508	0	508	38	20	
8	0	0	0	0	508	507	0	522	39	20	
9	0	0	0	0	508	505	0	535	38	20	
10	0	0	0	0	508	504	0	539	38	20	
11	0	0	0	0	509	505	0	532	38	20	
12	0	0	0	0	508	507	0	534	38	20	
13	0	0	0	0	507	505	0	537	38	20	
14	0	0	0	0	508	505	0	537	38	20	
15	0	0	0	0	507	507	0	522	38	20	
0	0	0	0	0	510	507	0	510	39	20	
1	0	0	0	0	509	505	0	505	38	20	
2	0	0	0	0	509	505	0	519	38	20	
3	0	0	0	0	512	505	0	512	38	20	
4	0	0	0	0	511	505	0	487	38	20	
5	0	0	0	0	508	505	0	473	38	20	
6	0	0	0	0	508	504	0	465	38	20	
7	0	0	0	0	508	507	0	451	38	20	
8	0	0	0	0	506	506	0	426	39	20	
9	0	0	0	0	509	507	0	413	38	20	
10	0	0	0	0	509	505	0	422	38	20	
11	0	0	0	0	508	505	0	448	38	20	
12	0	0	0	0	508	505	0	460	38	20	
13	0	0	0	0	510	505	0	472	38	20	
14	0	0	0	0	512	507	0	484	38	20	
15	0	0	0	0	510	505	0	501	38	20	
0	0	0	0	0	510	507	0	519	39	20	
1	0	0	0	0	509	507	0	535	38	20	
2	0	0	0	0	508	505	0	550	38	20	
3	0	0	0	0	508	505	0	556	38	20	
4	0	0	0	0	510	504	0	546	38	20	
5	0	0	0	0	511	504	0	538	38	20	
6	0	0	0	0	510	507	0	531	38	20	
7	0	0	0	0	508	509	0	520	38	20	
8	0	0	0	0	510	508	0	531	39	20	
9	0	0	0	0	507	509	0	523	38	20	
10	0	0	0	0	508	510	0	522	38	20	
11	0	0	0	0	508	509	0	529	38	20	
12	0	0	0	0	508	508	0	542	38	20	
13	0	0	0	0	505	507	0	543	38	20	
14	0	0	0	0	504	507	0	534	38	20	
15	0	0	0	0	511	509	0	531	38	20	
0	0	0	0	0	510	510	0	548	39	20	
1	0	0	0	0	510	509	0	556	38	20	
2	0	0	0	0	508	507	0	555	38	20	
3	0	0	0	0	510	509	0	559	38	20	
4	0	0	0	0	511	509	0	541	38	20	
5	0	0	0	0	508	510	0	545	38	20	
6	0	0	0	0	508	510	0	561	38	20	
7	0	0	0	0	508	512	0	580	38	20	
8	0	0	0	0	508	511	0	591	39	20	
9	0	0	0	0	505	511	0	584	38	20	
10	0	0	0	0	506	510	0	572	38	20	
11	0	0	0	0	508	508	0	563	38	20	
12	0	0	0	0	507	508	0	575	38	20	
13	0	0	0	0	508	507	0	589	38	20	
14	0	0	0	0	511	508	0	590	38	20	
15	0	0	0	0	513	510	0	579	38	20	
0	0	0	0	0	510	509	0	571	39	20	
1	0	0	0	0	510	509	0	559	38	20	
2	0	0	0	0	509	508	0	548	38	20	
3	0	0	0	0	511	508	0	541	38	20	
4	0	0	0	0	512	508	0	545	38	20	
5	0	0	0	0	512	508	0	545	38	20	
6	0	0	0	0	513	510	0	536	38	20	
7	0	0	0	0	512	509	0	529	38	20	
8	0	0	0	0	512	509	0	526	39	20	
9	0	0	0	0	513	507	0	519	38	20	
10	0	0	0	0	513	506	0	513	38	20	
11	0	0	0	0	514	508	0	515	38	20	
12	0	0	0	0	514	510	0	523	38	20	
13	0	0	0	0	511	509	0	510	38	20	
14	0	0	0	0	512	510	0	506	38	20	
15	0	0	0	0	509	509	0	509	38	20	
0	0	0	0	0	505	508	0	506	39	20	
1	0	0	0	0	507	507	0	495	38	20	
2	0	0	0	0	507	507	0	504	38	20	
3	0	0	0	0	505	508	0	513	38	20	
4	0	0	0	0	505	507	0	521	38	20	
5	0	0	0	0	505	506	0	527	38	20	
6	0	0	0	0	505	506	0	536	38	20	
7	0	0	0	0	507	505	0	544	38	20	
8	0	0	0	0	511	506	0	549	39	20	
9	0	0	0	0	511	504	0	561	38	20	
10	0	0	0	0	510	503	0	550	38	20	
11	0	0	0	0	512	504	0	540	38	20	
12	0	0	0	0	510	505	0	536	38	20	
13	0	0	0	0	512	505	0	531	38	20	
14	0	0	0	0	510	507	0	536	38	20	
15	0	0	0	0	512	507	0	524	38	20	
0	0	0	0	0	508	507	0	509	39	20	
1	0	0	0	0	508	507	0	506	38	20	
2	0	0	0	0	509	508	0	521	38	20	
3	0	0	0	0	509	506	0	543	38	20	
4	0	0	0	0	509	507	0	550	38	20	
5	0	0	0	0	509	507	0	545	38	20	
6	0	0	0	0	510	508	0	532	38	20	
7	0	0	0	0	507	510	0	524	38	20	
8	0	0	0	0	510	509	0	514	39	20	
9	0	0	0	0	508	510	0	491	38	20	
10	0	0	0	0	507	511	0	471	38	20	
11	0	0	0	0	507	511	0	467	38	20	
12	0	0	0	0	510	509	0	484	38	20	
13	0	0	0	0	509	509	0	496	38	20	
14	0	0	0	0	505	509	0	493	38	20	
15	0	0	0	0	507	508	0	496	38	20	
0	0	0	0	0	508	507	0	490	39	20	
1	0	0	0	0	510	507	0	475	38	20	
2	0	0	0	0	509	506	0	460	38	20	
3	0	0	0	0	509	506	0	439	38	20	
4	0	0	0	0	509	505	0	418	38	20	
5	0	0	0	0	511	505	0	411	38	20	
6	0	0	0	0	508	506	0	424	38	20	
7	0	0	0	0	508	507	0	437	38	20	
8	0	0	0	0	508	508	0	437	39	20	
9	0	0	0	0	508	509	0	427	38	20	
10	0	0	0	0	509	510	0	434	38	20	
11	0	0	0	0	508	510	0	462	38	20	
12	0	0	0	0	509	511	0	497	38	20	
13	0	0	0	0	510	510	0	516	38	20	
14	0	0	0	0	511	510	0	536	38	20	
15	0	0	0	0	513	510	0	515	38	20	
0	0	0	0	0	511	509	0	505	39	20	
1	0	0	0	0	513	511	0	506	38	20	
2	0	0	0	0	515	510	0	518	38	20	
3	0	0	0	0	512	510	0	517	38	20	
4	0	0	0	0	510	509	0	511	38	20	
5	0	0	0	0	509	507	0	497	38	20	
6	0	0	0	0	509	507	0	489	38	20	
7	0	0	0	0	509	507	0	481	38	20	
8	0	0	0	0	509	507	0	470	39	20	
9	0	0	0	0	508	507	0	457	38	20	
10	0	0	0	0	507	506	0	455	38	20	
11	0	0	0	0	508	506	0	463	38	20	
12	0	0	0	0	508	505	0	474	38	20	
13	0	0	0	0	507	504	0	481	38	20	
14	0	0	0	0	506	504	0	488	38	20	
15	0	0	0	0	508	503	0	498	38	20	
0	0	0	0	0	510	502	0	503	39	20	
1	0	0	0	0	508	503	0	500	38	20	
2	0	0	0	0	504	506	0	499	38	20	
3	0	0	0	0	506	506	0	492	38	20	
4	0	0	0	0	507	507	0	502	38	20	
5	0	0	0	0	508	507	0	502	38	20	
6	0	0	0	0	507	506	0	488	38	20	
7	0	0	0	0	508	506	0	489	38	20	
8	0	0	0	0	509	506	0	497	39	20	
9	0	0	0	0	509	506	0	495	38	20	
10	0	0	0	0	509	508	0	481	38	20	
11	0	0	0	0	508	508	0	458	38	20	
12	0	0	0	0	508	507	0	446	38	20	
13	0	0	0	0	510	508	0	454	38	20	
14	0	0	0	0	512	508	0	460	38	20	
15	0	0	0	0	511	508	0	471	38	20	
0	0	0	0	0	512	508	0	472	39	20	
1	0	0	0	0	513	508	0	465	38	20	
2	0	0	0	0	513	508	0	451	38	20	
3	0	0	0	0	511	508	0	438	38	20	
4	0	0	0	0	510	508	0	435	38	20	
5	0	0	0	0	508	509	0	435	38	20	
6	0	0	0	0	506	507	0	430	38	20	
7	0	0	0	0	508	506	0	446	38	20	
8	0	0	0	0	508	506	0	470	39	20	
9	0	0	0	0	505	507	0	492	38	20	
10	0	0	0	0	510	506	0	511	38	20	
11	0	0	0	0	511	506	0	511	38	20	
12	0	0	0	0	509	507	0	503	38	20	
13	0	0	0	0	508	508	0	494	38	20	
14	0	0	0	0	509	508	0	492	38	20	
15	0	0	0	0	510	508	0	508	38	20	
0	0	0	0	0	508	508	0	531	39	20	
1	0	0	0	0	509	508	0	511	38	20	
2	0	0	0	0	507	509	0	505	38	20	
3	0	0	0	0	509	509	0	499	38	20	
4	0	0	0	0	508	509	0	504	38	20	
5	0	0	0	0	506	508	0	508	38	20	
6	0	0	0	0	510	509	0	510	38	20	
7	0	0	0	0	510	510	0	520	38	20	
8	0	0	0	0	512	509	0	534	39	20	
9	0	0	0	0	508	509	0	532	38	20	
10	0	0	0	0	505	508	0	513	38	20	
11	0	0	0	0	510	509	0	501	38	20	
12	0	0	0	0	510	508	0	496	38	20	
13	0	0	0	0	510	507	0	486	38	20	
14	0	0	0	0	508	506	0	475	38	20	
15	0	0	0	0	504	507	0	475	38	20	
0	0	0	0	0	508	506	0	473	39	20	
1	0	0	0	0	507	507	0	465	38	20	
2	0	0	0	0	505	505	0	459	38	20	
3	0	0	0	0	509	504	0	455	38	20	
4	0	0	0	0	508	504	0	454	38	20	
5	0	0	0	0	510	504	0	459	38	20	
6	0	0	0	0	510	504	0	476	38	20	
7	0	0	0	0	510	505	0	492	38	20	
8	0	0	0	0	512	507	0	496	39	20	
9	0	0	0	0	511	508	0	500	38	20	
10	0	0	0	0	512	508	0	520	38	20	
11	0	0	0	0	512	509	0	540	38	20	
12	0	0	0	0	512	510	0	544	38	20	
13	0	0	0	0	511	511	0	535	38	20	
14	0	0	0	0	510	509	0	529	38	20	
15	0	0	0	0	509	508	0	526	38	20	
0	0	0	0	0	510	508	0	518	39	20	
1	0	0	0	0	509	507	0	518	38	20	
2	0	0	0	0	512	509	0	523	38	20	
3	0	0	0	0	510	510	0	533	38	20	
4	0	0	0	0	510	509	0	540	38	20	
5	0	0	0	0	507	509	0	540	38	20	
6	0	0	0	0	508	509	0	525	38	20	
7	0	0	0	0	505	507	0	512	38	20	
8	0	0	0	0	508	507	0	503	39	20	
9	0	0	0	0	508	508	0	504	38	20	
10	0	0	0	0	504	508	0	511	38	20	
11	0	0	0	0	507	508	0	514	38	20	
12	0	0	0	0	508	509	0	514	38	20	
13	0	0	0	0	508	510	0	516	38	20	
14	0	0	0	0	506	511	0	520	38	20	
15	0	0	0	0	508	511	0	521	38	20	
0	0	0	0	0	504	510	0	514	39	20	
1	0	0	0	0	508	509	0	514	38	20	
2	0	0	0	0	511	509	0	522	38	20	
3	0	0	0	0	508	509	0	519	38	20	
4	0	0	0	0	511	509	0	525	38	20	
5	0	0	0	0	509	509	0	533	38	20	
6	0	0	0	0	511	510	0	530	38	20	
7	0	0	0	0	512	511	0	519	38	20	
8	0	0	0	0	512	511	0	503	39	20	
9	0	0	0	0	508	509	0	477	38	20	
10	0	0	0	0	508	508	0	455	38	20	
11	0	0	0	0	508	508	0	437	38	20	
12	0	0	0	0	509	509	0	436	38	20	
13	0	0	0	0	508	508	0	445	38	20	
14	0	0	0	0	511	509	0	460	38	20	
15	0	0	0	0	511	508	0	463	38	20	
0	0	0	0	0	510	509	0	471	39	20	
1	0	0	0	0	511	510	0	484	38	20	
2	0	0	0	0	510	510	0	486	38	20	
3	0	0	0	0	511	510	0	481	38	20	
4	0	0	0	0	511	510	0	479	38	20	
5	0	0	0	0	509	510	0	480	38	20	
6	0	0	0	0	510	510	0	480	38	20	
7	0	0	0	0	512	510	0	485	38	20	
8	0	0	0	0	511	511	0	492	39	20	
9	0	0	0	0	507	511	0	493	38	20	
10	0	0	0	0	507	509	0	487	38	20	
11	0	0	0	0	508	510	0	493	38	20	
12	0	0	0	0	507	508	0	499	38	20	
13	0	0	0	0	509	508	0	493	38	20	
14	0	0	0	0	508	508	0	482	38	20	
15	0	0	0	0	510	508	0	467	38	20	
0	0	0	0	0	509	507	0	451	39	20	
1	0	0	0	0	509	507	0	453	38	20	
2	0	0	0	0	512	507	0	466	38	20	
3	0	0	0	0	511	506	0	480	38	20	
4	0	0	0	0	510	505	0	489	38	20	
5	0	0	0	0	508	508	0	497	38	20	
6	0	0	0	0	510	508	0	500	38	20	
7	0	0	0	0	508	508	0	505	38	20	
8	0	0	0	0	509	509	0	516	39	20	
9	0	0	0	0	509	508	0	525	38	20	
10	0	0	0	0	507	509	0	533	38	20	
11	0	0	0	0	509	510	0	545	38	20	
12	0	0	0	0	511	510	0	557	38	20	
13	0	0	0	0	511	510	0	565	38	20	
14	0	0	0	0	510	510	0	585	38	20	
15	0	0	0	0	511	510	0	568	38	20	
0	0	0	0	0	511	508	0	574	39	20	
1	0	0	0	0	510	508	0	573	38	20	
2	0	0	0	0	508	509	0	566	38	20	
3	0	0	0	0	510	509	0	568	38	20	
4	0	0	0	0	512	510	0	561	38	20	
5	0	0	0	0	512	511	0	552	38	20	
6	0	0	0	0	512	511	0	540	38	20	
7	0	0	0	0	508	510	0	527	38	20	
8	0	0	0	0	510	509	0	536	39	20	
9	0	0	0	0	511	510	0	543	38	20	
10	0	0	0	0	510	508	0	539	38	20	
11	0	0	0	0	509	510	0	546	38	20	
12	0	0	0	0	509	510	0	551	38	20	
13	0	0	0	0	508	509	0	540	38	20	
14	0	0	0	0	507	509	0	520	38	20	
15	0	0	0	0	507	509	0	516	38	20	
0	0	0	0	0	509	510	0	521	39	20	
1	0	0	0	0	509	510	0	531	38	20	
2	0	0	0	0	508	511	0	540	38	20	
3	0	0	0	0	508	509	0	527	38	20	
4	0	0	0	0	509	509	0	526	38	20	
5	0	0	0	0	507	508	0	528	38	20	
6	0	0	0	0	509	507	0	515	38	20	
7	0	0	0	0	506	508	0	492	38	20	
8	0	0	0	0	508	510	0	451	39	20	
9	0	0	0	0	507	509	0	430	38	20	
10	0	0	0	0	508	510	0	440	38	20	
11	0	0	0	0	508	509	0	461	38	20	
12	0	0	0	0	509	508	0	472	38	20	
13	0	0	0	0	508	507	0	477	38	20	
14	0	0	0	0	510	507	0	495	38	20	
15	0	0	0	0	508	508	0	508	38	20	
0	0	0	0	0	509	507	0	530	39	20	
1	0	0	0	0	508	507	0	554	38	20	
2	0	0	0	0	512	507	0	558	38	20	
3	0	0	0	0	508	505	0	552	38	20	
4	0	0	0	0	504	505	0	557	38	20	
5	0	0	0	0	508	508	0	550	38	20	
6	0	0	0	0	507	506	0	545	38	20	
7	0	0	0	0	507	506	0	544	38	20	
8	0	0	0	0	507	508	0	548	39	20	
9	0	0	0	0	511	508	0	539	38	20	
10	0	0	0	0	507	509	0	537	38	20	
11	0	0	0	0	511	509	0	545	38	20	
12	0	0	0	0	510	510	0	551	38	20	
13	0	0	0	0	510	508	0	554	38	20	
14	0	0	0	0	511	508	0	565	38	19	
15	0	0	0	0	511	508	0	567	38	20	
0	0	0	0	0	511	507	0	563	39	20	
1	0	0	0	0	512	508	0	558	38	20	
2	0	0	0	0	512	509	0	553	38	20	
3	0	0	0	0	509	508	0	540	38	20	
4	0	0	0	0	507	508	0	530	38	20	
5	0	0	0	0	512	507	0	530	38	20	
6	0	0	0	0	508	505	0	532	38	19	
7	0	0	0	0	509	505	0	524	38	19	
8	0	0	0	0	505	506	0	521	39	20	
9	0	0	0	0	506	507	0	529	38	20	
10	0	0	0	0	509	508	0	523	38	20	
11	0	0	0	0	509	507	0	508	38	20	
12	0	0	0	0	510	506	0	500	38	20	
13	0	0	0	0	510	508	0	497	38	20	
14	0	0	0	0	509	508	0	498	38	19	
15	0	0	0	0	510	510	0	505	38	19	
0	0	0	0	0	508	509	0	529	39	20	
1	0	0	0	0	510	508	0	531	38	20	
2	0	0	0	0	511	508	0	538	38	20	
3	0	0	0	0	511	507	0	531	38	20	
4	0	0	0	0	512	508	0	524	38	20	
5	0	0	0	0	511	506	0	514	38	20	
6	0	0	0	0	510	507	0	501	38	19	
7	0	0	0	0	509	506	0	487	38	19	
8	0	0	0	0	509	505	0	485	39	19	
9	0	0	0	0	511	504	0	486	38	20	
10	0	0	0	0	509	505	0	484	38	20	
11	0	0	0	0	505	504	0	490	38	20	
12	0	0	0	0	509	506	0	499	38	20	
13	0	0	0	0	507	506	0	507	38	20	
14	0	0	0	0	508	507	0	514	38	19	
15	0	0	0	0	510	506	0	525	38	19	
0	0	0	0	0	509	504	0	517	39	19	
1	0	0	0	0	508	505	0	515	38	20	
2	0	0	0	0	509	506	0	519	38	20	
3	0	0	0	0	507	508	0	519	38	20	
4	0	0	0	0	508	508	0	518	38	20	
5	0	0	0	0	508	508	0	526	38	20	
6	0	0	0	0	509	508	0	532	38	19	
7	0	0	0	0	511	508	0	537	38	19	
8	0	0	0	0	511	509	0	528	39	19	
9	0	0	0	0	510	508	0	508	38	19	
10	0	0	0	0	509	509	0	508	38	20	
11	0	0	0	0	508	509	0	523	38	20	
12	0	0	0	0	510	510	0	545	38	20	
13	0	0	0	0	511	510	0	568	38	20	
14	0	0	0	0	512	512	0	560	38	19	
15	0	0	0	0	511	511	0	552	38	19	
0	0	0	0	0	512	510	0	547	39	19	
1	0	0	0	0	511	510	0	540	38	19	
2	0	0	0	0	509	510	0	522	38	19	
3	0	0	0	0	508	508	0	512	38	20	
4	0	0	0	0	510	509	0	512	38	20	
5	0	0	0	0	508	510	0	508	38	20	
6	0	0	0	0	508	510	0	499	38	20	
7	0	0	0	0	507	509	0	481	38	19	
8	0	0	0	0	507	509	0	465	39	19	
9	0	0	0	0	508	507	0	460	38	19	
10	0	0	0	0	508	508	0	462	38	19	
11	0	0	0	0	507	508	0	466	38	20	
12	0	0	0	0	510	508	0	455	38	20	
13	0	0	0	0	508	507	0	446	38	20	
14	0	0	0	0	512	507	0	440	38	20	
15	0	0	0	0	509	508	0	440	38	19	
0	0	0	0	0	509	507	0	453	39	19	
1	0	0	0	0	511	507	0	473	38	19	
2	0	0	0	0	511	505	0	487	38	19	
3	0	0	0	0	508	505	0	496	38	19	
4	0	0	0	0	509	505	0	508	38	20	
5	0	0	0	0	510	505	0	524	38	20	
6	0	0	0	0	510	505	0	530	38	20	
7	0	0	0	0	511	505	0	534	38	19	
8	0	0	0	0	512	507	0	522	39	19	
9	0	0	0	0	512	507	0	504	38	19	
10	0	0	0	0	511	506	0	496	38	19	
11	0	0	0	0	510	507	0	487	38	19	
12	0	0	0	0	510	506	0	478	38	19	
13	0	0	0	0	508	507	0	469	38	20	
14	0	0	0	0	509	510	0	463	38	20	
15	0	0	0	0	510	509	0	450	38	19	
0	0	0	0	0	508	509	0	434	39	19	
1	0	0	0	0	508	510	0	430	38	19	
2	0	0	0	0	507	510	0	440	38	19	
3	0	0	0	0	508	508	0	462	38	19	
4	0	0	0	0	509	506	0	486	38	19	
5	0	0	0	0	511	505	0	500	38	20	
6	0	0	0	0	512	505	0	510	38	20	
7	0	0	0	0	511	505	0	518	38	19	
8	0	0	0	0	509	506	0	508	39	19	
9	0	0	0	0	509	508	0	492	38	19	
10	0	0	0	0	508	508	0	483	38	19	
11	0	0	0	0	507	508	0	479	38	19	
12	0	0	0	0	507	507	0	486	38	19	
13	0	0	0	0	508	507	0	481	38	19	
14	0	0	0	0	508	507	0	470	38	19	
15	0	0	0	0	509	508	0	461	38	19	
0	0	0	0	0	508	507	0	461	39	19	
1	0	0	0	0	508	505	0	461	38	19	
2	0	0	0	0	509	504	0	466	38	19	
3	0	0	0	0	508	505	0	470	38	19	
4	0	0	0	0	511	507	0	471	38	19	
5	0	0	0	0	510	508	0	496	38	19	
6	0	0	0	0	513	506	0	532	38	19	
7	0	0	0	0	512	506	0	556	38	19	
8	0	0	0	0	507	506	0	564	39	19	
9	0	0	0	0	508	506	0	540	38	19	
10	0	0	0	0	508	506	0	513	38	19	
11	0	0	0	0	507	508	0	491	38	19	
12	0	0	0	0	507	507	0	481	38	19	
13	0	0	0	0	508	507	0	483	38	19	
14	0	0	0	0	511	508	0	486	38	19	
15	0	0	0	0	509	508	0	495	38	19	
0	0	0	0	0	510	505	0	504	39	19	
1	0	0	0	0	510	505	0	508	38	19	
2	0	0	0	0	510	506	0	503	38	19	
3	0	0	0	0	510	506	0	487	38	19	
4	0	0	0	0	511	506	0	475	38	19	
5	0	0	0	0	509	504	0	472	38	19	
6	0	0	0	0	511	507	0	471	38	19	
7	0	0	0	0	508	507	0	479	38	19	
8	0	0	0	0	508	506	0	484	39	19	
9	0	0	0	0	508	505	0	473	38	19	
10	0	0	0	0	508	507	0	478	38	19	
11	0	0	0	0	511	508	0	490	38	19	
12	0	0	0	0	510	509	0	502	38	19	
13	0	0	0	0	511	508	0	516	38	19	
14	0	0	0	0	509	507	0	534	38	19	
15	0	0	0	0	508	506	0	551	38	19	
0	0	0	0	0	507	506	0	568	39	19	
1	0	0	0	0	507	505	0	574	38	19	
2	0	0	0	0	509	505	0	571	38	19	
3	0	0	0	0	510	507	0	562	38	19	
4	0	0	0	0	508	508	0	570	38	19	
5	0	0	0	0	510	507	0	588	38	19	
6	0	0	0	0	509	508	0	604	38	19	
7	0	0	0	0	511	508	0	611	38	19	
8	0	0	0	0	510	506	0	604	39	19	
9	0	0	0	0	508	508	0	592	38	19	
10	0	0	0	0	511	509	0	573	38	19	
11	0	0	0	0	511	510	0	558	38	19	
12	0	0	0	0	510	509	0	546	38	19	
13	0	0	0	0	507	508	0	525	38	19	
14	0	0	0	0	507	507	0	505	38	19	
15	0	0	0	0	507	508	0	505	38	19	
0	0	0	0	0	507	509	0	510	39	19	
1	0	0	0	0	506	508	0	508	38	19	
2	0	0	0	0	506	508	0	510	38	19	
3	0	0	0	0	508	509	0	512	38	19	
4	0	0	0	0	508	509	0	517	38	19	
5	0	0	0	0	507	508	0	518	38	19	
6	0	0	0	0	506	507	0	496	38	19	
7	0	0	0	0	507	507	0	485	38	19	
8	0	0	0	0	509	506	0	481	39	19	
9	0	0	0	0	510	508	0	482	38	19	
10	0	0	0	0	508	507	0	483	38	19	
11	0	0	0	0	509	508	0	469	38	19	
12	0	0	0	0	511	507	0	464	38	19	
13	0	0	0	0	508	507	0	466	38	19	
14	0	0	0	0	510	508	0	462	38	19	
15	0	0	0	0	512	508	0	456	38	19	
0	0	0	0	0	510	508	0	446	39	19	
1	0	0	0	0	511	510	0	455	38	19	
2	0	0	0	0	511	509	0	472	38	19	
3	0	0	0	0	508	508	0	480	38	19	
4	0	0	0	0	511	510	0	497	38	19	
5	0	0	0	0	512	509	0	499	38	19	
6	0	0	0	0	511	507	0	501	38	19	
7	0	0	0	0	511	508	0	500	38	19	
8	0	0	0	0	511	507	0	499	39	19	
9	0	0	0	0	510	506	0	505	38	19	
10	0	0	0	0	510	507	0	498	38	19	
11	0	0	0	0	512	508	0	502	38	19	
12	0	0	0	0	510	507	0	520	38	19	
13	0	0	0	0	510	508	0	540	38	19	
14	0	0	0	0	508	508	0	542	38	19	
15	0	0	0	0	510	509	0	512	38	19	
0	0	0	0	0	510	509	0	492	39	19	
1	0	0	0	0	510	506	0	495	38	19	
2	0	0	0	0	510	508	0	491	38	19	
3	0	0	0	0	511	508	0	476	38	19	
4	0	0	0	0	510	509	0	454	38	19	
5	0	0	0	0	510	511	0	444	38	19	
6	0	0	0	0	510	512	0	439	38	19	
7	0	0	0	0	508	510	0	432	38	19	
8	0	0	0	0	510	510	0	439	39	19	
9	0	0	0	0	509	509	0	454	38	19	
10	0	0	0	0	508	511	0	477	38	19	
11	0	0	0	0	508	513	0	495	38	19	
12	0	0	0	0	509	512	0	487	38	19	
13	0	0	0	0	510	512	0	483	38	19	
14	0	0	0	0	508	512	0	485	38	19	
15	0	0	0	0	510	510	0	492	38	19	
0	0	0	0	0	509	508	0	499	39	19	
1	0	0	0	0	508	507	0	513	38	19	
2	0	0	0	0	508	507	0	533	38	19	
3	0	0	0	0	509	506	0	537	38	19	
4	0	0	0	0	509	507	0	529	38	19	
5	0	0	0	0	507	508	0	511	38	19	
6	0	0	0	0	507	509	0	496	38	19	
7	0	0	0	0	508	511	0	493	38	19	
8	0	0	0	0	505	510	0	499	39	19	
9	0	0	0	0	507	511	0	504	38	19	
10	0	0	0	0	508	511	0	520	38	19	
11	0	0	0	0	507	510	0	521	38	19	
12	0	0	0	0	512	509	0	509	38	19	
13	0	0	0	0	511	509	0	503	38	19	
14	0	0	0	0	506	508	0	499	38	19	
15	0	0	0	0	508	507	0	502	38	19	
0	0	0	0	0	508	507	0	511	39	19	
1	0	0	0	0	505	506	0	505	38	19	
2	0	0	0	0	504	506	0	515	38	19	
3	0	0	0	0	508	508	0	534	38	19	
4	0	0	0	0	507	510	0	546	38	19	
5	0	0	0	0	509	510	0	552	38	19	
6	0	0	0	0	510	511	0	559	38	19	
7	0	0	0	0	511	510	0	553	38	19	
8	0	0	0	0	511	509	0	539	39	19	
9	0	0	0	0	512	510	0	524	38	19	
10	0	0	0	0	513	509	0	517	38	19	
11	0	0	0	0	511	507	0	518	38	19	
12	0	0	0	0	511	507	0	503	38	19	
13	0	0	0	0	511	509	0	475	38	19	
14	0	0	0	0	514	508	0	458	38	19	
15	0	0	0	0	511	508	0	455	38	19	
0	0	0	0	0	511	507	0	448	39	19	
1	0	0	0	0	510	510	0	447	38	19	
2	0	0	0	0	512	508	0	443	38	19	
3	0	0	0	0	511	509	0	446	38	19	
4	0	0	0	0	509	508	0	471	38	19	
5	0	0	0	0	508	508	0	499	38	19	
6	0	0	0	0	506	508	0	515	38	19	
7	0	0	0	0	507	507	0	511	38	18	
8	0	0	0	0	507	508	0	496	39	19	
9	0	0	0	0	510	508	0	490	38	19	
10	0	0	0	0	509	510	0	479	38	19	
11	0	0	0	0	508	512	0	476	38	19	
12	0	0	0	0	507	513	0	472	38	19	
13	0	0	0	0	509	512	0	481	38	19	
14	0	0	0	0	510	512	0	494	38	19	
15	0	0	0	0	510	512	0	508	38	18	
0	0	0	0	0	507	511	0	538	39	18	
1	0	0	0	0	506	510	0	559	38	19	
2	0	0	0	0	506	511	0	572	38	19	
3	0	0	0	0	505	509	0	579	38	19	
4	0	0	0	0	508	508	0	571	38	19	
5	0	0	0	0	510	507	0	571	38	19	
6	0	0	0	0	508	508	0	561	38	19	
7	0	0	0	0	509	508	0	550	38	18	
8	0	0	0	0	511	508	0	546	39	18	
9	0	0	0	0	509	507	0	536	38	18	
10	0	0	0	0	509	507	0	524	38	19	
11	0	0	0	0	510	505	0	508	38	19	
12	0	0	0	0	511	507	0	499	38	19	
13	0	0	0	0	512	507	0	492	38	19	
14	0	0	0	0	512	507	0	502	38	19	
15	0	0	0	0	510	505	0	482	38	18	
0	0	0	0	0	510	505	0	450	39	18	
1	0	0	0	0	512	504	0	444	38	18	
2	0	0	0	0	510	505	0	450	38	19	
3	0	0	0	0	508	506	0	452	38	19	
4	0	0	0	0	510	507	0	455	38	19	
5	0	0	0	0	510	507	0	449	38	19	
6	0	0	0	0	509	506	0	456	38	19	
7	0	0	0	0	508	507	0	473	38	18	
8	0	0	0	0	509	505	0	483	39	18	
9	0	0	0	0	509	506	0	493	38	18	
10	0	0	0	0	509	506	0	492	38	18	
11	0	0	0	0	508	507	0	499	38	19	
12	0	0	0	0	511	509	0	514	38	19	
13	0	0	0	0	510	509	0	526	38	19	
14	0	0	0	0	511	509	0	524	38	19	
15	0	0	0	0	510	508	0	512	38	19	
0	0	0	0	0	509	508	0	511	39	18	
1	0	0	0	0	509	510	0	518	38	18	
2	0	0	0	0	508	509	0	516	38	18	
3	0	0	0	0	509	508	0	501	38	18	
4	0	0	0	0	508	510	0	482	38	19	
5	0	0	0	0	509	510	0	465	38	19	
6	0	0	0	0	507	509	0	455	38	19	
7	0	0	0	0	509	507	0	454	38	19	
8	0	0	0	0	507	505	0	444	39	18	
9	0	0	0	0	508	507	0	449	38	18	
10	0	0	0	0	507	507	0	467	38	18	
11	0	0	0	0	508	508	0	476	38	18	
12	0	0	0	0	508	508	0	493	38	19	
13	0	0	0	0	507	509	0	495	38	19	
14	0	0	0	0	507	509	0	492	38	19	
15	0	0	0	0	507	508	0	492	38	19	
0	0	0	0	0	510	510	0	480	39	18	
1	0	0	0	0	508	510	0	467	38	18	
2	0	0	0	0	509	510	0	455	38	18	
3	0	0	0	0	509	511	0	449	38	18	
4	0	0	0	0	509	511	0	452	38	18	
5	0	0	0	0	511	510	0	451	38	19	
6	0	0	0	0	512	508	0	460	38	19	
7	0	0	0	0	511	509	0	496	38	19	
8	0	0	0	0	509	509	0	510	39	18	
9	0	0	0	0	508	508	0	513	38	18	
10	0	0	0	0	510	508	0	521	38	18	
11	0	0	0	0	509	508	0	527	38	18	
12	0	0	0	0	511	508	0	532	38	18	
13	0	0	0	0	511	509	0	539	38	18	
14	0	0	0	0	510	508	0	543	38	19	
15	0	0	0	0	510	509	0	538	38	19	
0	0	0	0	0	506	507	0	537	39	18	
1	0	0	0	0	505	508	0	543	38	18	
2	0	0	0	0	509	506	0	549	38	18	
3	0	0	0	0	508	506	0	544	38	18	
4	0	0	0	0	510	505	0	536	38	18	
5	0	0	0	0	508	506	0	540	38	18	
6	0	0	0	0	510	505	0	543	38	18	
7	0	0	0	0	509	505	0	527	38	19	
8	0	0	0	0	507	505	0	507	39	18	
9	0	0	0	0	507	505	0	496	38	18	
10	0	0	0	0	508	505	0	487	38	18	
11	0	0	0	0	506	505	0	475	38	18	
12	0	0	0	0	508	504	0	458	38	18	
13	0	0	0	0	508	505	0	446	38	18	
14	0	0	0	0	510	504	0	457	38	18	
15	0	0	0	0	508	505	0	476	38	18	
0	0	0	0	0	508	506	0	497	39	18	
1	0	0	0	0	511	504	0	498	38	18	
2	0	0	0	0	512	504	0	490	38	18	
3	0	0	0	0	512	505	0	496	38	18	
4	0	0	0	0	515	504	0	496	38	18	
5	0	0	0	0	512	504	0	496	38	18	
6	0	0	0	0	512	504	0	498	38	18	
7	0	0	0	0	510	504	0	496	38	18	
8	0	0	0	0	510	504	0	504	39	18	
9	0	0	0	0	508	506	0	510	38	18	
10	0	0	0	0	508	508	0	501	38	18	
11	0	0	0	0	507	510	0	490	38	18	
12	0	0	0	0	507	510	0	472	38	18	
13	0	0	0	0	509	511	0	466	38	18	
14	0	0	0	0	510	511	0	459	38	18	
15	0	0	0	0	508	509	0	447	38	18	
0	0	0	0	0	510	508	0	440	39	18	
1	0	0	0	0	507	508	0	440	38	18	
2	0	0	0	0	509	508	0	464	38	18	
3	0	0	0	0	510	508	0	475	38	18	
4	0	0	0	0	509	507	0	496	38	18	
5	0	0	0	0	510	506	0	507	38	18	
6	0	0	0	0	509	507	0	513	38	18	
7	0	0	0	0	510	508	0	528	38	18	
8	0	0	0	0	508	507	0	542	39	18	
9	0	0	0	0	507	508	0	537	38	18	
10	0	0	0	0	507	507	0	525	38	18	
11	0	0	0	0	507	507	0	535	38	18	
12	0	0	0	0	510	506	0	543	38	18	
13	0	0	0	0	507	507	0	542	38	18	
14	0	0	0	0	511	507	0	536	38	18	
15	0	0	0	0	512	506	0	519	38	18	
0	0	0	0	0	511	507	0	504	39	18	
1	0	0	0	0	509	508	0	500	38	18	
2	0	0	0	0	508	507	0	507	38	18	
3	0	0	0	0	506	507	0	512	38	18	
4	0	0	0	0	508	508	0	515	38	18	
5	0	0	0	0	509	507	0	525	38	18	
6	0	0	0	0	509	509	0	521	38	18	
7	0	0	0	0	509	509	0	519	38	18	
8	0	0	0	0	511	509	0	512	39	18	
9	0	0	0	0	510	509	0	500	38	18	
10	0	0	0	0	511	509	0	483	38	18	
11	0	0	0	0	510	506	0	482	38	18	
12	0	0	0	0	509	506	0	494	38	18	
13	0	0	0	0	510	508	0	521	38	18	
14	0	0	0	0	510	508	0	546	38	18	
15	0	0	0	0	511	508	0	556	38	18	
0	0	0	0	0	510	509	0	559	39	18	
1	0	0	0	0	508	508	0	550	38	18	
2	0	0	0	0	510	508	0	543	38	18	
3	0	0	0	0	506	507	0	538	38	18	
4	0	0	0	0	503	507	0	543	38	18	
5	0	0	0	0	506	506	0	549	38	18	
6	0	0	0	0	506	506	0	551	38	18	
7	0	0	0	0	509	507	0	565	38	18	
8	0	0	0	0	509	508	0	577	39	18	
9	0	0	0	0	511	509	0	581	38	18	
10	0	0	0	0	510	506	0	574	38	18	
11	0	0	0	0	510	505	0	565	38	18	
12	0	0	0	0	509	505	0	565	38	18	
13	0	0	0	0	508	508	0	563	38	18	
14	0	0	0	0	509	509	0	553	38	18	
15	0	0	0	0	510	509	0	545	38	18	
0	0	0	0	0	509	509	0	536	39	18	
1	0	0	0	0	508	509	0	519	38	18	
2	0	0	0	0	510	508	0	508	38	18	
3	0	0	0	0	511	508	0	503	38	18	
4	0	0	0	0	511	509	0	496	38	18	
5	0	0	0	0	508	511	0	490	38	18	
6	0	0	0	0	510	510	0	495	38	18	
7	0	0	0	0	508	510	0	511	38	18	
8	0	0	0	0	510	511	0	516	39	18	
9	0	0	0	0	508	512	0	529	38	18	
10	0	0	0	0	510	511	0	538	38	18	
11	0	0	0	0	511	510	0	543	38	18	
12	0	0	0	0	510	509	0	545	38	18	
13	0	0	0	0	508	510	0	542	38	18	
14	0	0	0	0	508	511	0	530	38	18	
15	0	0	0	0	510	510	0	521	38	18	
0	0	0	0	0	510	509	0	496	39	18	
1	0	0	0	0	509	508	0	481	38	18	
2	0	0	0	0	508	508	0	482	38	18	
3	0	0	0	0	509	508	0	479	38	18	
4	0	0	0	0	508	507	0	476	38	18	
5	0	0	0	0	511	507	0	480	38	18	
6	0	0	0	0	510	507	0	483	38	18	
7	0	0	0	0	510	508	0	489	38	18	
8	0	0	0	0	510	507	0	490	39	18	
9	0	0	0	0	509	507	0	482	38	18	
10	0	0	0	0	509	508	0	463	38	18	
11	0	0	0	0	511	509	0	454	38	18	
12	0	0	0	0	510	510	0	453	38	18	
13	0	0	0	0	509	509	0	459	38	18	
14	0	0	0	0	510	508	0	464	38	18	
15	0	0	0	0	510	508	0	471	38	18	
0	0	0	0	0	513	507	0	476	39	18	
1	0	0	0	0	512	509	0	492	38	18	
2	0	0	0	0	512	510	0	518	38	18	
3	0	0	0	0	508	508	0	539	38	18	
4	0	0	0	0	508	510	0	556	38	18	
5	0	0	0	0	509	510	0	554	38	18	
6	0	0	0	0	509	510	0	551	38	18	
7	0	0	0	0	509	510	0	542	38	18	
8	0	0	0	0	511	508	0	531	39	18	
9	0	0	0	0	510	509	0	531	38	18	
10	0	0	0	0	511	509	0	532	38	18	
11	0	0	0	0	509	508	0	545	38	18	
12	0	0	0	0	508	509	0	567	38	18	
13	0	0	0	0	507	508	0	590	38	18	
14	0	0	0	0	506	510	0	587	38	18	
15	0	0	0	0	506	509	0	570	38	18	
0	0	0	0	0	508	508	0	557	39	18	
1	0	0	0	0	507	507	0	555	38	18	
2	0	0	0	0	507	507	0	544	38	18	
3	0	0	0	0	509	506	0	531	38	18	
4	0	0	0	0	511	504	0	522	38	18	
5	0	0	0	0	511	506	0	521	38	18	
6	0	0	0	0	511	507	0	540	38	18	
7	0	0	0	0	509	505	0	547	38	18	
8	0	0	0	0	508	504	0	543	39	18	
9	0	0	0	0	509	506	0	549	38	18	
10	0	0	0	0	506	507	0	553	38	18	
11	0	0	0	0	511	507	0	550	38	18	
12	0	0	0	0	510	507	0	552	38	18	
13	0	0	0	0	508	507	0	576	38	18	
14	0	0	0	0	507	507	0	593	38	18	
15	0	0	0	0	507	508	0	590	38	18	
0	0	0	0	0	508	506	0	570	39	18	
1	0	0	0	0	510	504	0	545	38	18	
2	0	0	0	0	510	505	0	544	38	18	
3	0	0	0	0	509	507	0	534	38	18	
4	0	0	0	0	509	507	0	545	38	18	
5	0	0	0	0	509	508	0	556	38	18	
6	0	0	0	0	508	510	0	561	38	18	
7	0	0	0	0	510	510	0	562	38	18	
8	0	0	0	0	511	510	0	555	39	18	
9	0	0	0	0	509	509	0	548	38	18	
10	0	0	0	0	511	510	0	537	38	18	
11	0	0	0	0	509	510	0	534	38	18	
12	0	0	0	0	509	508	0	552	38	18	
13	0	0	0	0	507	508	0	572	38	18	
14	0	0	0	0	509	508	0	586	38	18	
15	0	0	0	0	506	507	0	597	38	18	
0	0	0	0	0	508	507	0	597	39	17	
1	0	0	0	0	510	508	0	603	38	17	
2	0	0	0	0	511	507	0	599	38	18	
3	0	0	0	0	511	507	0	584	38	18	
4	0	0	0	0	509	508	0	560	38	18	
5	0	0	0	0	510	507	0	542	38	18	
6	0	0	0	0	510	507	0	525	38	18	
7	0	0	0	0	511	506	0	515	38	18	
8	0	0	0	0	510	506	0	518	39	17	
9	0	0	0	0	507	505	0	527	38	17	
10	0	0	0	0	509	507	0	532	38	17	
11	0	0	0	0	510	508	0	518	38	18	
12	0	0	0	0	510	507	0	511	38	18	
13	0	0	0	0	509	506	0	508	38	18	
14	0	0	0	0	509	507	0	518	38	18	
15	0	0	0	0	512	505	0	503	38	18	
0	0	0	0	0	511	505	0	498	39	18	
1	0	0	0	0	513	506	0	485	38	17	
2	0	0	0	0	512	504	0	483	38	17	
3	0	0	0	0	508	506	0	493	38	18	
4	0	0	0	0	509	506	0	503	38	18	
5	0	0	0	0	511	507	0	498	38	18	
6	0	0	0	0	508	505	0	497	38	18	
7	0	0	0	0	509	504	0	504	38	18	
8	0	0	0	0	507	505	0	518	39	18	
9	0	0	0	0	506	505	0	541	38	17	
10	0	0	0	0	509	507	0	556	38	17	
11	0	0	0	0	509	508	0	558	38	17	
12	0	0	0	0	510	507	0	563	38	18	
13	0	0	0	0	508	507	0	563	38	18	
14	0	0	0	0	506	510	0	557	38	18	
15	0	0	0	0	506	511	0	533	38	18	
0	0	0	0	0	506	508	0	505	39	18	
1	0	0	0	0	507	508	0	491	38	17	
2	0	0	0	0	508	508	0	495	38	17	
3	0	0	0	0	508	508	0	510	38	17	
4	0	0	0	0	505	507	0	496	38	18	
5	0	0	0	0	506	507	0	495	38	18	
6	0	0	0	0	509	506	0	486	38	18	
7	0	0	0	0	510	508	0	464	38	18	
8	0	0	0	0	508	506	0	455	39	18	
9	0	0	0	0	508	505	0	448	38	17	
10	0	0	0	0	510	503	0	445	38	17	
11	0	0	0	0	510	504	0	444	38	17	
12	0	0	0	0	510	504	0	451	38	17	
13	0	0	0	0	510	505	0	470	38	18	
14	0	0	0	0	510	506	0	478	38	18	
15	0	0	0	0	511	507	0	484	38	18	
0	0	0	0	0	510	507	0	489	39	18	
1	0	0	0	0	511	508	0	503	38	17	
2	0	0	0	0	511	508	0	517	38	17	
3	0	0	0	0	512	508	0	525	38	17	
4	0	0	0	0	512	509	0	535	38	17	
5	0	0	0	0	512	508	0	527	38	18	
6	0	0	0	0	511	507	0	520	38	18	
7	0	0	0	0	510	506	0	521	38	18	
8	0	0	0	0	510	507	0	504	39	18	
9	0	0	0	0	509	507	0	488	38	17	
10	0	0	0	0	508	506	0	488	38	17	
11	0	0	0	0	508	507	0	489	38	17	
12	0	0	0	0	510	506	0	497	38	17	
13	0	0	0	0	511	508	0	508	38	17	
14	0	0	0	0	508	508	0	526	38	18	
15	0	0	0	0	508	508	0	533	38	18	
0	0	0	0	0	507	507	0	525	39	18	
1	0	0	0	0	508	508	0	512	38	17	
2	0	0	0	0	508	507	0	502	38	17	
3	0	0	0	0	507	506	0	508	38	17	
4	0	0	0	0	509	505	0	519	38	17	
5	0	0	0	0	510	505	0	521	38	17	
6	0	0	0	0	511	507	0	510	38	17	
7	0	0	0	0	512	506	0	500	38	18	
8	0	0	0	0	513	506	0	493	39	18	
9	0	0	0	0	513	507	0	493	38	17	
10	0	0	0	0	509	507	0	497	38	17	
11	0	0	0	0	508	507	0	508	38	17	
12	0	0	0	0	510	506	0	513	38	17	
13	0	0	0	0	509	506	0	521	38	17	
14	0	0	0	0	509	505	0	530	38	17	
15	0	0	0	0	509	507	0	528	38	18	
0	0	0	0	0	510	507	0	529	39	18	
1	0	0	0	0	510	508	0	520	38	18	
2	0	0	0	0	509	507	0	521	38	17	
3	0	0	0	0	508	507	0	534	38	17	
4	0	0	0	0	509	506	0	543	38	17	
5	0	0	0	0	508	505	0	543	38	17	
6	0	0	0	0	507	506	0	537	38	17	
7	0	0	0	0	507	506	0	525	38	17	
8	0	0	0	0	508	507	0	513	39	18	
9	0	0	0	0	507	509	0	510	38	18	
10	0	0	0	0	508	510	0	511	38	17	
11	0	0	0	0	507	510	0	497	38	17	
12	0	0	0	0	508	510	0	492	38	17	
13	0	0	0	0	511	510	0	496	38	17	
14	0	0	0	0	510	511	0	499	38	17	
15	0	0	0	0	510	510	0	480	38	17	
0	0	0	0	0	510	510	0	478	39	18	
1	0	0	0	0	510	508	0	478	38	18	
2	0	0	0	0	509	508	0	480	38	17	
3	0	0	0	0	508	507	0	486	38	17	
4	0	0	0	0	511	505	0	490	38	17	
5	0	0	0	0	512	505	0	488	38	17	
6	0	0	0	0	513	507	0	482	38	17	
7	0	0	0	0	511	505	0	483	38	17	
8	0	0	0	0	511	507	0	490	39	17	
9	0	0	0	0	511	507	0	492	38	18	
10	0	0	0	0	508	507	0	472	38	17	
11	0	0	0	0	510	508	0	463	38	17	
12	0	0	0	0	509	508	0	465	38	17	
13	0	0	0	0	508	509	0	469	38	17	
14	0	0	0	0	507	507	0	490	38	17	
15	0	0	0	0	508	507	0	493	38	17	
0	0	0	0	0	509	506	0	504	39	17	
1	0	0	0	0	510	505	0	511	38	17	
2	0	0	0	0	509	504	0	526	38	17	
3	0	0	0	0	508	504	0	546	38	17	
4	0	0	0	0	509	505	0	545	38	17	
5	0	0	0	0	508	506	0	521	38	17	
6	0	0	0	0	505	507	0	503	38	17	
7	0	0	0	0	507	508	0	502	38	17	
8	0	0	0	0	508	510	0	512	39	17	
9	0	0	0	0	510	511	0	507	38	17	
10	0	0	0	0	510	510	0	491	38	17	
11	0	0	0	0	512	510	0	491	38	17	
12	0	0	0	0	510	509	0	497	38	17	
13	0	0	0	0	509	511	0	507	38	17	
14	0	0	0	0	509	508	0	526	38	17	
15	0	0	0	0	510	508	0	535	38	17	
0	0	0	0	0	511	507	0	546	39	17	
1	0	0	0	0	511	507	0	544	38	17	
2	0	0	0	0	511	505	0	536	38	17	
3	0	0	0	0	508	506	0	549	38	17	
4	0	0	0	0	508	506	0	545	38	17	
5	0	0	0	0	508	504	0	551	38	17	
6	0	0	0	0	511	506	0	554	38	17	
7	0	0	0	0	511	507	0	564	38	17	
8	0	0	0	0	511	508	0	585	39	17	
9	0	0	0	0	511	508	0	572	38	17	
10	0	0	0	0	508	508	0	556	38	17	
11	0	0	0	0	511	507	0	543	38	17	
12	0	0	0	0	508	508	0	528	38	17	
13	0	0	0	0	509	507	0	524	38	17	
14	0	0	0	0	507	508	0	512	38	17	
15	0	0	0	0	508	508	0	510	38	17	
0	0	0	0	0	508	508	0	514	39	17	
1	0	0	0	0	509	509	0	526	38	17	
2	0	0	0	0	509	510	0	532	38	17	
3	0	0	0	0	509	511	0	532	38	17	
4	0	0	0	0	508	510	0	528	38	17	
5	0	0	0	0	508	509	0	510	38	17	
6	0	0	0	0	510	509	0	490	38	17	
7	0	0	0	0	511	508	0	462	38	17	
8	0	0	0	0	512	507	0	461	39	17	
9	0	0	0	0	512	508	0	476	38	17	
10	0	0	0	0	511	509	0	489	38	17	
11	0	0	0	0	512	508	0	494	38	17	
12	0	0	0	0	510	507	0	488	38	17	
13	0	0	0	0	511	507	0	476	38	17	
14	0	0	0	0	507	506	0	459	38	17	
15	0	0	0	0	510	506	0	461	38	17	
0	0	0	0	0	510	507	0	472	39	17	
1	0	0	0	0	508	508	0	489	38	17	
2	0	0	0	0	508	508	0	507	38	17	
3	0	0	0	0	512	509	0	519	38	17	
4	0	0	0	0	511	509	0	534	38	17	
5	0	0	0	0	510	508	0	538	38	17	
6	0	0	0	0	510	508	0	529	38	17	
7	0	0	0	0	510	507	0	524	38	17	
8	0	0	0	0	510	508	0	528	39	17	
9	0	0	0	0	509	510	0	536	38	17	
10	0	0	0	0	511	509	0	568	38	17	
11	0	0	0	0	511	508	0	556	38	17	
12	0	0	0	0	510	508	0	551	38	17	
13	0	0	0	0	509	507	0	550	38	17	
14	0	0	0	0	506	506	0	535	38	17	
15	0	0	0	0	510	505	0	530	38	17	
0	0	0	0	0	505	504	0	523	39	17	
1	0	0	0	0	507	504	0	512	38	17	
2	0	0	0	0	509	505	0	494	38	17	
3	0	0	0	0	505	504	0	479	38	17	
4	0	0	0	0	508	505	0	490	38	17	
5	0	0	0	0	508	507	0	515	38	17	
6	0	0	0	0	508	506	0	534	38	17	
7	0	0	0	0	510	505	0	550	38	17	
8	0	0	0	0	511	507	0	563	39	17	
9	0	0	0	0	510	507	0	564	38	17	
10	0	0	0	0	513	507	0	564	38	17	
11	0	0	0	0	511	506	0	565	38	17	
12	0	0	0	0	511	508	0	569	38	17	
13	0	0	0	0	512	509	0	581	38	17	
14	0	0	0	0	509	510	0	584	38	17	
15	0	0	0	0	511	510	0	578	38	17	
0	0	0	0	0	509	509	0	572	39	17	
1	0	0	0	0	509	509	0	572	38	17	
2	0	0	0	0	508	510	0	562	38	17	
3	0	0	0	0	509	510	0	537	38	17	
4	0	0	0	0	508	510	0	508	38	17	
5	0	0	0	0	507	511	0	480	38	17	
6	0	0	0	0	505	510	0	470	38	17	
7	0	0	0	0	509	510	0	439	38	17	
8	0	0	0	0	505	510	0	437	39	17	
9	0	0	0	0	505	510	0	451	38	17	
10	0	0	0	0	509	510	0	463	38	17	
11	0	0	0	0	511	510	0	471	38	17	
12	0	0	0	0	512	509	0	498	38	17	
13	0	0	0	0	509	510	0	489	38	17	
14	0	0	0	0	509	509	0	480	38	17	
15	0	0	0	0	512	509	0	471	38	17	
0	0	0	0	0	510	509	0	470	39	17	
1	0	0	0	0	509	510	0	472	38	17	
2	0	0	0	0	510	510	0	464	38	17	
3	0	0	0	0	509	510	0	457	38	17	
4	0	0	0	0	508	508	0	450	38	17	
5	0	0	0	0	508	510	0	443	38	17	
6	0	0	0	0	507	510	0	450	38	17	
7	0	0	0	0	507	509	0	462	38	17	
8	0	0	0	0	508	510	0	462	39	17	
9	0	0	0	0	507	509	0	464	38	17	
10	0	0	0	0	508	509	0	468	38	17	
11	0	0	0	0	508	508	0	472	38	17	
12	0	0	0	0	507	507	0	491	38	17	
13	0	0	0	0	509	506	0	495	38	17	
14	0	0	0	0	506	508	0	500	38	17	
15	0	0	0	0	506	510	0	512	38	17	
0	0	0	0	0	508	510	0	518	39	17	
1	0	0	0	0	508	511	0	531	38	17	
2	0	0	0	0	509	509	0	508	38	17	
3	0	0	0	0	507	508	0	493	38	17	
4	0	0	0	0	507	506	0	489	38	17	
5	0	0	0	0	510	506	0	469	38	17	
6	0	0	0	0	507	506	0	450	38	17	
7	0	0	0	0	505	506	0	439	38	17	
8	0	0	0	0	510	507	0	435	39	17	
9	0	0	0	0	508	507	0	444	38	17	
10	0	0	0	0	510	508	0	455	38	17	
11	0	0	0	0	511	509	0	451	38	17	
12	0	0	0	0	511	508	0	464	38	17	
13	0	0	0	0	513	505	0	500	38	17	
14	0	0	0	0	512	506	0	515	38	17	
15	0	0	0	0	510	507	0	520	38	17	
0	0	0	0	0	509	505	0	506	39	17	
1	0	0	0	0	512	506	0	497	38	17	
2	0	0	0	0	509	508	0	501	38	17	
3	0	0	0	0	508	507	0	503	38	17	
4	0	0	0	0	513	508	0	499	38	17	
5	0	0	0	0	509	508	0	507	38	17	
6	0	0	0	0	510	508	0	508	38	17	
7	0	0	0	0	508	507	0	498	38	17	
8	0	0	0	0	509	507	0	498	39	17	
9	0	0	0	0	508	507	0	502	38	17	
10	0	0	0	0	509	507	0	516	38	17	
11	0	0	0	0	508	507	0	519	38	17	
12	0	0	0	0	509	506	0	515	38	17	
13	0	0	0	0	510	504	0	512	38	17	
14	0	0	0	0	510	507	0	517	38	17	
15	0	0	0	0	508	508	0	518	38	17	
0	0	0	0	0	508	510	0	510	39	17	
1	0	0	0	0	508	509	0	503	38	17	
2	0	0	0	0	510	509	0	504	38	17	
3	0	0	0	0	511	509	0	488	38	17	
4	0	0	0	0	510	510	0	482	38	17	
5	0	0	0	0	508	511	0	472	38	17	
6	0	0	0	0	508	510	0	464	38	17	
7	0	0	0	0	508	509	0	455	38	17	
8	0	0	0	0	510	507	0	449	39	17	
9	0	0	0	0	508	507	0	452	38	17	
10	0	0	0	0	509	507	0	457	38	17	
11	0	0	0	0	510	508	0	469	38	17	
12	0	0	0	0	511	509	0	494	38	17	
13	0	0	0	0	509	510	0	487	38	17	
14	0	0	0	0	509	509	0	467	38	17	
15	0	0	0	0	512	508	0	457	38	17	
0	0	0	0	0	510	507	0	441	39	17	
1	0	0	0	0	509	508	0	432	38	17	
2	0	0	0	0	511	510	0	443	38	17	
3	0	0	0	0	510	509	0	458	38	17	
4	0	0	0	0	509	508	0	459	38	17	
5	0	0	0	0	507	509	0	453	38	17	
6	0	0	0	0	506	508	0	446	38	17	
7	0	0	0	0	509	506	0	443	38	17	
8	0	0	0	0	507	507	0	460	39	17	
9	0	0	0	0	510	508	0	474	38	17	
10	0	0	0	0	511	509	0	483	38	17	
11	0	0	0	0	511	509	0	496	38	17	
12	0	0	0	0	510	508	0	511	38	17	
13	0	0	0	0	509	506	0	512	38	17	
14	0	0	0	0	511	506	0	523	38	17	
15	0	0	0	0	510	506	0	544	38	17	
0	0	0	0	0	509	505	0	559	39	17	
1	0	0	0	0	508	503	0	556	38	17	
2	0	0	0	0	510	504	0	545	38	17	
3	0	0	0	0	510	505	0	552	38	17	
4	0	0	0	0	511	504	0	562	38	17	
5	0	0	0	0	512	505	0	571	38	17	
6	0	0	0	0	511	505	0	570	38	17	
7	0	0	0	0	508	507	0	582	38	17	
8	0	0	0	0	507	505	0	578	39	17	
9	0	0	0	0	508	505	0	583	38	17	
10	0	0	0	0	508	505	0	585	38	17	
11	0	0	0	0	509	506	0	565	38	17	
12	0	0	0	0	509	507	0	535	38	17	
13	0	0	0	0	509	506	0	519	38	17	
14	0	0	0	0	508	507	0	512	38	17	
15	0	0	0	0	508	508	0	517	38	17	
0	0	0	0	0	508	508	0	532	39	17	
1	0	0	0	0	511	507	0	546	38	17	
2	0	0	0	0	508	508	0	560	38	17	
3	0	0	0	0	512	508	0	553	38	17	
4	0	0	0	0	512	507	0	541	38	17	
5	0	0	0	0	510	508	0	531	38	17	
6	0	0	0	0	508	509	0	520	38	17	
7	0	0	0	0	508	509	0	511	38	17	
8	0	0	0	0	506	508	0	504	39	17	
9	0	0	0	0	505	510	0	503	38	17	
10	0	0	0	0	509	509	0	496	38	17	
11	0	0	0	0	506	510	0	490	38	17	
12	0	0	0	0	506	512	0	487	38	17	
13	0	0	0	0	510	512	0	486	38	17	
14	0	0	0	0	512	511	0	486	38	17	
15	0	0	0	0	508	512	0	494	38	17	
0	0	0	0	0	508	511	0	502	39	17	
1	0	0	0	0	509	509	0	514	38	17	
2	0	0	0	0	506	508	0	521	38	17	
3	0	0	0	0	506	509	0	526	38	17	
4	0	0	0	0	508	508	0	526	38	17	
5	0	0	0	0	509	508	0	532	38	17	
6	0	0	0	0	510	507	0	539	38	17	
7	0	0	0	0	512	508	0	536	38	17	
8	0	0	0	0	511	507	0	530	39	17	
9	0	0	0	0	509	507	0	538	38	17	
10	0	0	0	0	511	507	0	550	38	17	
11	0	0	0	0	510	506	0	557	38	17	
12	0	0	0	0	510	505	0	573	38	17	
13	0	0	0	0	508	505	0	580	38	17	
14	0	0	0	0	510	505	0	559	38	17	
15	0	0	0	0	509	505	0	531	38	17	
0	0	0	0	0	508	504	0	494	39	17	
1	0	0	0	0	509	506	0	460	38	17	
2	0	0	0	0	510	507	0	429	38	17	
3	0	0	0	0	507	507	0	411	38	17	
4	0	0	0	0	508	508	0	394	38	17	
5	0	0	0	0	508	508	0	379	38	17	
6	0	0	0	0	510	506	0	379	38	17	
7	0	0	0	0	509	507	0	397	38	17	
8	0	0	0	0	508	505	0	425	39	17	
9	0	0	0	0	509	505	0	441	38	17	
10	0	0	0	0	511	506	0	423	38	17	
11	0	0	0	0	511	507	0	423	38	17	
12	0	0	0	0	512	508	0	447	38	17	
13	0	0	0	0	510	508	0	477	38	17	
14	0	0	0	0	509	509	0	500	38	17	
15	0	0	0	0	510	509	0	507	38	17	
0	0	0	0	0	510	511	0	513	39	17	
1	0	0	0	0	508	510	0	517	38	17	
2	0	0	0	0	508	511	0	527	38	17	
3	0	0	0	0	507	510	0	531	38	17	
4	0	0	0	0	508	510	0	539	38	17	
5	0	0	0	0	506	509	0	556	38	17	
6	0	0	0	0	505	509	0	571	38	17	
7	0	0	0	0	508	509	0	590	38	17	
8	0	0	0	0	508	508	0	599	39	17	
9	0	0	0	0	509	509	0	612	38	17	
10	0	0	0	0	511	509	0	616	38	17	
11	0	0	0	0	511	509	0	598	38	17	
12	0	0	0	0	513	509	0	578	38	17	
13	0	0	0	0	510	508	0	569	38	17	
14	0	0	0	0	510	508	0	560	38	17	
15	0	0	0	0	511	508	0	545	38	17	
0	0	0	0	0	511	508	0	519	39	17	
1	0	0	0	0	510	509	0	498	38	17	
2	0	0	0	0	510	509	0	498	38	17	
3	0	0	0	0	510	510	0	495	38	17	
4	0	0	0	0	509	510	0	498	38	17	
5	0	0	0	0	511	508	0	514	38	17	
6	0	0	0	0	510	508	0	539	38	17	
7	0	0	0	0	509	509	0	559	38	17	
8	0	0	0	0	509	508	0	559	39	17	
9	0	0	0	0	510	510	0	544	38	17	
10	0	0	0	0	513	511	0	540	38	17	
11	0	0	0	0	509	510	0	537	38	17	
12	0	0	0	0	511	509	0	541	38	17	
13	0	0	0	0	510	509	0	534	38	17	
14	0	0	0	0	507	508	0	513	38	17	
15	0	0	0	0	508	508	0	501	38	17	
0	0	0	0	0	509	509	0	508	39	17	
1	0	0	0	0	510	510	0	526	38	17	
2	0	0	0	0	505	508	0	529	38	17	
3	0	0	0	0	508	509	0	522	38	17	
4	0	0	0	0	510	508	0	517	38	17	
5	0	0	0	0	509	507	0	510	38	17	
6	0	0	0	0	509	507	0	511	38	17	
7	0	0	0	0	510	506	0	513	38	17	
8	0	0	0	0	509	503	0	519	39	17	
9	0	0	0	0	510	504	0	524	38	17	
10	0	0	0	0	509	504	0	535	38	17	
11	0	0	0	0	509	505	0	558	38	17	
12	0	0	0	0	509	505	0	545	38	17	
13	0	0	0	0	507	508	0	534	38	17	
14	0	0	0	0	505	508	0	515	38	17	
15	0	0	0	0	505	508	0	492	38	17	
0	0	0	0	0	504	508	0	460	39	17	
1	0	0	0	0	505	507	0	454	38	17	
2	0	0	0	0	508	509	0	440	38	17	
3	0	0	0	0	507	509	0	451	38	17	
4	0	0	0	0	509	509	0	482	38	17	
5	0	0	0	0	508	510	0	497	38	17	
6	0	0	0	0	506	510	0	502	38	17	
7	0	0	0	0	507	508	0	504	38	17	
8	0	0	0	0	510	507	0	505	39	17	
9	0	0	0	0	510	507	0	503	38	17	
10	0	0	0	0	510	505	0	505	38	17	
11	0	0	0	0	508	507	0	509	38	17	
12	0	0	0	0	508	508	0	512	38	17	
13	0	0	0	0	510	507	0	505	38	17	
14	0	0	0	0	510	508	0	498	38	17	
15	0	0	0	0	510	508	0	484	38	17	
0	0	0	0	0	511	510	0	465	39	17	
1	0	0	0	0	511	508	0	458	38	16	
2	0	0	0	0	510	508	0	473	38	17	
3	0	0	0	0	509	508	0	502	38	17	
4	0	0	0	0	511	507	0	523	38	17	
5	0	0	0	0	511	506	0	523	38	17	
6	0	0	0	0	511	508	0	529	38	17	
7	0	0	0	0	512	508	0	539	38	17	
8	0	0	0	0	512	509	0	549	39	17	
9	0	0	0	0	512	510	0	556	38	16	
10	0	0	0	0	515	509	0	554	38	16	
11	0	0	0	0	511	510	0	551	38	17	
12	0	0	0	0	512	510	0	559	38	17	
13	0	0	0	0	512	509	0	570	38	17	
14	0	0	0	0	511	508	0	571	38	17	
15	0	0	0	0	508	507	0	568	38	17	
0	0	0	0	0	508	506	0	563	39	17	
1	0	0	0	0	508	507	0	566	38	17	
2	0	0	0	0	508	507	0	568	38	16	
3	0	0	0	0	509	507	0	572	38	17	
4	0	0	0	0	509	506	0	573	38	17	
5	0	0	0	0	507	505	0	570	38	17	
6	0	0	0	0	505	505	0	560	38	17	
7	0	0	0	0	508	506	0	555	38	17	
8	0	0	0	0	507	507	0	573	39	17	
9	0	0	0	0	508	507	0	589	38	17	
10	0	0	0	0	510	506	0	602	38	16	
11	0	0	0	0	505	507	0	604	38	16	
12	0	0	0	0	508	507	0	603	38	17	
13	0	0	0	0	506	508	0	609	38	17	
14	0	0	0	0	508	507	0	604	38	17	
15	0	0	0	0	509	507	0	590	38	17	
0	0	0	0	0	510	508	0	579	39	17	
1	0	0	0	0	509	509	0	574	38	17	
2	0	0	0	0	510	508	0	569	38	16	
3	0	0	0	0	508	510	0	546	38	16	
4	0	0	0	0	511	508	0	528	38	17	
5	0	0	0	0	509	507	0	530	38	17	
6	0	0	0	0	510	507	0	531	38	17	
7	0	0	0	0	511	508	0	524	38	17	
8	0	0	0	0	509	509	0	510	39	17	
9	0	0	0	0	507	508	0	485	38	17	
10	0	0	0	0	510	508	0	467	38	16	
11	0	0	0	0	510	510	0	451	38	16	
12	0	0	0	0	511	510	0	455	38	16	
13	0	0	0	0	511	511	0	440	38	17	
14	0	0	0	0	510	509	0	418	38	17	
15	0	0	0	0	507	508	0	403	38	17	
0	0	0	0	0	508	507	0	414	39	17	
1	0	0	0	0	507	509	0	417	38	17	
2	0	0	0	0	507	508	0	412	38	16	
3	0	0	0	0	508	509	0	406	38	16	
4	0	0	0	0	510	507	0	406	38	16	
5	0	0	0	0	510	506	0	408	38	17	
6	0	0	0	0	508	506	0	412	38	17	
7	0	0	0	0	510	508	0	413	38	17	
8	0	0	0	0	508	508	0	417	39	17	
9	0	0	0	0	507	506	0	431	38	17	
10	0	0	0	0	508	506	0	446	38	17	
11	0	0	0	0	510	507	0	471	38	16	
12	0	0	0	0	509	508	0	471	38	16	
13	0	0	0	0	508	508	0	476	38	17	
14	0	0	0	0	509	508	0	493	38	17	
15	0	0	0	0	511	510	0	505	38	17	
0	0	0	0	0	508	508	0	511	39	17	
1	0	0	0	0	508	507	0	487	38	17	
2	0	0	0	0	508	507	0	472	38	17	
3	0	0	0	0	509	507	0	474	38	16	
4	0	0	0	0	508	508	0	486	38	16	
5	0	0	0	0	509	507	0	501	38	16	
6	0	0	0	0	511	508	0	521	38	17	
7	0	0	0	0	510	508	0	521	38	17	
8	0	0	0	0	509	508	0	511	39	17	
9	0	0	0	0	511	508	0	528	38	17	
10	0	0	0	0	508	507	0	538	38	17	
11	0	0	0	0	509	506	0	529	38	16	
12	0	0	0	0	506	507	0	518	38	16	
13	0	0	0	0	507	507	0	507	38	16	
14	0	0	0	0	505	507	0	499	38	16	
15	0	0	0	0	507	507	0	481	38	17	
0	0	0	0	0	508	508	0	481	39	17	
1	0	0	0	0	510	508	0	480	38	17	
2	0	0	0	0	508	509	0	478	38	17	
3	0	0	0	0	511	509	0	476	38	16	
4	0	0	0	0	509	508	0	485	38	16	
5	0	0	0	0	511	508	0	475	38	16	
6	0	0	0	0	512	508	0	460	38	16	
7	0	0	0	0	511	509	0	464	38	17	
8	0	0	0	0	510	508	0	478	39	17	
9	0	0	0	0	510	507	0	484	38	17	
10	0	0	0	0	511	509	0	479	38	17	
11	0	0	0	0	513	509	0	467	38	16	
12	0	0	0	0	508	509	0	465	38	16	
13	0	0	0	0	513	509	0	472	38	16	
14	0	0	0	0	509	508	0	483	38	16	
15	0	0	0	0	510	506	0	490	38	17	
0	0	0	0	0	512	505	0	485	39	17	
1	0	0	0	0	513	505	0	488	38	17	
2	0	0	0	0	511	505	0	499	38	17	
3	0	0	0	0	511	506	0	513	38	17	
4	0	0	0	0	508	508	0	526	38	16	
5	0	0	0	0	507	509	0	534	38	16	
6	0	0	0	0	505	509	0	539	38	16	
7	0	0	0	0	508	510	0	553	38	16	
8	0	0	0	0	508	509	0	576	39	17	
9	0	0	0	0	505	508	0	603	38	17	
10	0	0	0	0	507	506	0	615	38	17	
11	0	0	0	0	508	507	0	625	38	17	
12	0	0	0	0	507	507	0	619	38	16	
13	0	0	0	0	510	508	0	614	38	16	
14	0	0	0	0	507	506	0	576	38	16	
15	0	0	0	0	508	507	0	540	38	16	
0	0	0	0	0	510	508	0	512	39	17	
1	0	0	0	0	508	507	0	506	38	17	
2	0	0	0	0	508	508	0	514	38	17	
3	0	0	0	0	508	508	0	523	38	17	
4	0	0	0	0	508	509	0	528	38	16	
5	0	0	0	0	509	510	0	517	38	16	
6	0	0	0	0	512	508	0	503	38	16	
7	0	0	0	0	511	509	0	494	38	16	
8	0	0	0	0	510	508	0	503	39	17	
9	0	0	0	0	512	508	0	498	38	17	
10	0	0	0	0	509	506	0	512	38	17	
11	0	0	0	0	511	507	0	531	38	17	
12	0	0	0	0	508	507	0	531	38	17	
13	0	0	0	0	511	508	0	504	38	16	
14	0	0	0	0	511	508	0	485	38	16	
15	0	0	0	0	511	509	0	470	38	16	
0	0	0	0	0	509	510	0	457	39	16	
1	0	0	0	0	506	510	0	464	38	17	
2	0	0	0	0	508	510	0	475	38	17	
3	0	0	0	0	508	509	0	480	38	17	
4	0	0	0	0	507	507	0	476	38	17	
5	0	0	0	0	507	506	0	468	38	16	
6	0	0	0	0	509	506	0	471	38	16	
7	0	0	0	0	511	506	0	484	38	16	
8	0	0	0	0	509	508	0	491	39	16	
9	0	0	0	0	510	508	0	508	38	17	
10	0	0	0	0	511	508	0	526	38	17	
11	0	0	0	0	510	508	0	542	38	17	
12	0	0	0	0	511	508	0	533	38	17	
13	0	0	0	0	510	508	0	510	38	16	
14	0	0	0	0	510	507	0	492	38	16	
15	0	0	0	0	510	505	0	476	38	16	
0	0	0	0	0	509	506	0	471	39	16	
1	0	0	0	0	509	504	0	468	38	17	
2	0	0	0	0	508	505	0	452	38	17	
3	0	0	0	0	507	505	0	438	38	17	
4	0	0	0	0	508	506	0	438	38	17	
5	0	0	0	0	506	507	0	440	38	17	
6	0	0	0	0	507	507	0	437	38	16	
7	0	0	0	0	506	504	0	440	38	16	
8	0	0	0	0	508	505	0	458	39	16	
9	0	0	0	0	511	505	0	490	38	16	
10	0	0	0	0	512	504	0	518	38	17	
11	0	0	0	0	511	503	0	510	38	17	
12	0	0	0	0	510	504	0	501	38	17	
13	0	0	0	0	511	503	0	497	38	17	
14	0	0	0	0	510	505	0	501	38	16	
15	0	0	0	0	510	505	0	496	38	16	
0	0	0	0	0	512	504	0	483	39	16	
1	0	0	0	0	510	504	0	480	38	16	
2	0	0	0	0	511	506	0	494	38	17	
3	0	0	0	0	509	506	0	503	38	17	
4	0	0	0	0	508	508	0	518	38	17	
5	0	0	0	0	507	509	0	525	38	17	
6	0	0	0	0	508	510	0	536	38	16	
7	0	0	0	0	508	509	0	537	38	16	
8	0	0	0	0	511	509	0	524	39	16	
9	0	0	0	0	508	507	0	511	38	16	
10	0	0	0	0	509	508	0	497	38	17	
11	0	0	0	0	508	508	0	494	38	17	
12	0	0	0	0	509	507	0	505	38	17	
13	0	0	0	0	512	508	0	513	38	17	
14	0	0	0	0	511	508	0	513	38	17	
15	0	0	0	0	511	510	0	523	38	16	
0	0	0	0	0	512	509	0	532	39	16	
1	0	0	0	0	511	508	0	544	38	16	
2	0	0	0	0	505	509	0	550	38	16	
3	0	0	0	0	505	510	0	555	38	17	
4	0	0	0	0	509	509	0	558	38	17	
5	0	0	0	0	510	508	0	547	38	17	
6	0	0	0	0	509	507	0	547	38	17	
7	0	0	0	0	511	507	0	545	38	16	
8	0	0	0	0	511	505	0	544	39	16	
9	0	0	0	0	508	505	0	552	38	16	
10	0	0	0	0	507	505	0	554	38	16	
11	0	0	0	0	504	504	0	563	38	17	
12	0	0	0	0	510	506	0	573	38	17	
13	0	0	0	0	509	506	0	571	38	17	
14	0	0	0	0	512	507	0	545	38	17	
15	0	0	0	0	509	507	0	514	38	16	
0	0	0	0	0	511	506	0	490	39	16	
1	0	0	0	0	511	508	0	479	38	16	
2	0	0	0	0	510	507	0	481	38	16	
3	0	0	0	0	511	508	0	487	38	17	
4	0	0	0	0	513	508	0	497	38	17	
5	0	0	0	0	511	508	0	516	38	17	
6	0	0	0	0	510	509	0	520	38	17	
7	0	0	0	0	509	510	0	509	38	17	
8	0	0	0	0	510	511	0	503	39	16	
9	0	0	0	0	510	511	0	510	38	16	
10	0	0	0	0	511	510	0	532	38	16	
11	0	0	0	0	512	510	0	546	38	16	
12	0	0	0	0	511	510	0	556	38	17	
13	0	0	0	0	509	509	0	519	38	17	
14	0	0	0	0	510	510	0	508	38	17	
15	0	0	0	0	510	510	0	505	38	17	
0	0	0	0	0	508	510	0	495	39	16	
1	0	0	0	0	508	509	0	487	38	16	
2	0	0	0	0	508	509	0	463	38	16	
3	0	0	0	0	505	510	0	454	38	16	
4	0	0	0	0	504	510	0	456	38	17	
5	0	0	0	0	505	510	0	466	38	17	
6	0	0	0	0	506	510	0	492	38	17	
7	0	0	0	0	506	510	0	514	38	17	
8	0	0	0	0	505	509	0	515	39	16	
9	0	0	0	0	506	510	0	515	38	16	
10	0	0	0	0	507	511	0	522	38	16	
11	0	0	0	0	506	511	0	529	38	16	
12	0	0	0	0	505	510	0	545	38	17	
13	0	0	0	0	505	507	0	544	38	17	
14	0	0	0	0	509	506	0	538	38	17	
15	0	0	0	0	508	508	0	537	38	17	
0	0	0	0	0	511	509	0	546	39	17	
1	0	0	0	0	512	509	0	542	38	16	
2	0	0	0	0	509	510	0	530	38	16	
3	0	0	0	0	511	509	0	518	38	16	
4	0	0	0	0	512	509	0	518	38	16	
5	0	0	0	0	512	510	0	516	38	17	
6	0	0	0	0	512	509	0	503	38	17	
7	0	0	0	0	510	507	0	490	38	17	
8	0	0	0	0	512	509	0	492	39	17	
9	0	0	0	0	512	509	0	507	38	16	
10	0	0	0	0	511	509	0	525	38	16	
11	0	0	0	0	510	510	0	534	38	16	
12	0	0	0	0	510	506	0	531	38	16	
13	0	0	0	0	510	507	0	523	38	17	
14	0	0	0	0	512	508	0	508	38	17	
15	0	0	0	0	509	507	0	495	38	17	
0	0	0	0	0	511	508	0	490	39	17	
1	0	0	0	0	511	508	0	494	38	16	
2	0	0	0	0	509	508	0	489	38	16	
3	0	0	0	0	508	509	0	487	38	16	
4	0	0	0	0	505	508	0	481	38	16	
5	0	0	0	0	503	508	0	483	38	16	
6	0	0	0	0	506	508	0	481	38	17	
7	0	0	0	0	509	508	0	482	38	17	
8	0	0	0	0	508	507	0	476	39	17	
9	0	0	0	0	507	509	0	469	38	17	
10	0	0	0	0	506	509	0	473	38	16	
11	0	0	0	0	509	509	0	487	38	16	
12	0	0	0	0	511	509	0	501	38	16	
13	0	0	0	0	511	510	0	513	38	16	
14	0	0	0	0	511	511	0	517	38	17	
15	0	0	0	0	511	510	0	535	38	17	
0	0	0	0	0	511	511	0	543	39	17	
1	0	0	0	0	508	510	0	537	38	17	
2	0	0	0	0	511	509	0	528	38	16	
3	0	0	0	0	510	509	0	523	38	16	
4	0	0	0	0	509	509	0	521	38	16	
5	0	0	0	0	509	509	0	510	38	16	
6	0	0	0	0	508	509	0	494	38	17	
7	0	0	0	0	506	510	0	498	38	17	
8	0	0	0	0	508	509	0	516	39	17	
9	0	0	0	0	510	508	0	521	38	17	
10	0	0	0	0	510	508	0	519	38	16	
11	0	0	0	0	509	508	0	527	38	16	
12	0	0	0	0	511	508	0	544	38	16	
13	0	0	0	0	509	507	0	556	38	16	
14	0	0	0	0	507	508	0	560	38	17	
15	0	0	0	0	508	507	0	557	38	17	
0	0	0	0	0	509	508	0	551	39	17	
1	0	0	0	0	511	507	0	561	38	17	
2	0	0	0	0	510	506	0	567	38	17	
3	0	0	0	0	509	505	0	563	38	16	
4	0	0	0	0	508	505	0	556	38	16	
5	0	0	0	0	508	507	0	557	38	16	
6	0	0	0	0	512	508	0	546	38	16	
7	0	0	0	0	511	507	0	537	38	17	
8	0	0	0	0	511	507	0	539	39	17	
9	0	0	0	0	510	507	0	536	38	17	
10	0	0	0	0	508	507	0	531	38	17	
11	0	0	0	0	509	508	0	519	38	16	
12	0	0	0	0	506	508	0	513	38	16	
13	0	0	0	0	507	508	0	504	38	16	
14	0	0	0	0	510	510	0	505	38	16	
15	0	0	0	0	508	509	0	518	38	17	
0	0	0	0	0	508	509	0	527	39	17	
1	0	0	0	0	510	509	0	534	38	17	
2	0	0	0	0	510	509	0	514	38	17	
3	0	0	0	0	510	509	0	507	38	16	
4	0	0	0	0	510	507	0	512	38	16	
5	0	0	0	0	510	507	0	516	38	16	
6	0	0	0	0	511	504	0	509	38	16	
7	0	0	0	0	509	504	0	479	38	17	
8	0	0	0	0	507	506	0	459	39	17	
9	0	0	0	0	508	505	0	451	38	17	
10	0	0	0	0	505	506	0	449	38	17	
11	0	0	0	0	508	507	0	450	38	17	
12	0	0	0	0	513	507	0	472	38	16	
13	0	0	0	0	511	506	0	486	38	16	
14	0	0	0	0	511	507	0	508	38	16	
15	0	0	0	0	512	508	0	519	38	16	
0	0	0	0	0	511	508	0	515	39	17	
1	0	0	0	0	510	509	0	519	38	17	
2	0	0	0	0	512	509	0	531	38	17	
3	0	0	0	0	511	510	0	533	38	17	
4	0	0	0	0	512	508	0	527	38	16	
5	0	0	0	0	511	507	0	522	38	16	
6	0	0	0	0	509	508	0	508	38	16	
7	0	0	0	0	508	506	0	486	38	16	
8	0	0	0	0	507	506	0	467	39	17	
9	0	0	0	0	507	507	0	461	38	17	
10	0	0	0	0	506	506	0	456	38	17	
11	0	0	0	0	506	506	0	448	38	17	
12	0	0	0	0	508	506	0	435	38	16	
13	0	0	0	0	508	504	0	430	38	16	
14	0	0	0	0	508	508	0	434	38	16	
15	0	0	0	0	509	509	0	425	38	16	
0	0	0	0	0	506	509	0	403	39	16	
1	0	0	0	0	508	510	0	403	38	17	
2	0	0	0	0	509	508	0	413	38	17	
3	0	0	0	0	508	508	0	428	38	17	
4	0	0	0	0	509	505	0	456	38	17	
5	0	0	0	0	510	506	0	468	38	16	
6	0	0	0	0	511	508	0	477	38	16	
7	0	0	0	0	509	508	0	483	38	16	
8	0	0	0	0	508	508	0	487	39	16	
9	0	0	0	0	509	508	0	488	38	17	
10	0	0	0	0	511	506	0	474	38	17	
11	0	0	0	0	511	508	0	467	38	17	
12	0	0	0	0	512	508	0	474	38	17	
13	0	0	0	0	511	509	0	481	38	16	
14	0	0	0	0	507	509	0	492	38	16	
15	0	0	0	0	506	509	0	494	38	16	
0	0	0	0	0	508	509	0	495	39	16	
1	0	0	0	0	509	509	0	496	38	17	
2	0	0	0	0	510	508	0	504	38	17	
3	0	0	0	0	509	509	0	526	38	17	
4	0	0	0	0	508	509	0	528	38	17	
5	0	0	0	0	508	508	0	523	38	16	
6	0	0	0	0	510	508	0	515	38	16	
7	0	0	0	0	509	509	0	513	38	16	
8	0	0	0	0	510	509	0	505	39	16	
9	0	0	0	0	507	510	0	513	38	17	
10	0	0	0	0	509	508	0	507	38	17	
11	0	0	0	0	508	508	0	502	38	17	
12	0	0	0	0	507	507	0	508	38	17	
13	0	0	0	0	509	508	0	524	38	17	
14	0	0	0	0	511	509	0	516	38	16	
15	0	0	0	0	512	511	0	507	38	16	
0	0	0	0	0	511	508	0	525	39	16	
1	0	0	0	0	511	508	0	541	38	16	
2	0	0	0	0	508	509	0	554	38	17	
3	0	0	0	0	507	508	0	553	38	17	
4	0	0	0	0	509	508	0	541	38	17	
5	0	0	0	0	507	508	0	532	38	17	
6	0	0	0	0	508	509	0	520	38	16	
7	0	0	0	0	507	510	0	512	38	16	
8	0	0	0	0	507	509	0	475	39	16	
9	0	0	0	0	509	509	0	461	38	16	
10	0	0	0	0	510	507	0	466	38	17	
11	0	0	0	0	511	507	0	477	38	17	
12	0	0	0	0	511	507	0	472	38	17	
13	0	0	0	0	513	508	0	460	38	17	
14	0	0	0	0	512	508	0	447	38	16	
15	0	0	0	0	510	508	0	443	38	16	
0	0	0	0	0	511	508	0	438	39	16	
1	0	0	0	0	511	509	0	426	38	16	
2	0	0	0	0	510	508	0	417	38	17	
3	0	0	0	0	509	507	0	426	38	17	
4	0	0	0	0	510	505	0	443	38	17	
5	0	0	0	0	512	504	0	470	38	17	
6	0	0	0	0	513	505	0	492	38	17	
7	0	0	0	0	512	505	0	512	38	16	
8	0	0	0	0	512	506	0	531	39	16	
9	0	0	0	0	512	505	0	551	38	16	
10	0	0	0	0	512	505	0	565	38	17	
11	0	0	0	0	510	506	0	561	38	17	
12	0	0	0	0	508	509	0	558	38	17	
13	0	0	0	0	509	509	0	554	38	17	
14	0	0	0	0	508	509	0	547	38	17	
15	0	0	0	0	507	509	0	549	38	16	
0	0	0	0	0	505	509	0	551	39	16	
1	0	0	0	0	509	510	0	558	38	16	
2	0	0	0	0	505	510	0	556	38	16	
3	0	0	0	0	507	510	0	554	38	17	
4	0	0	0	0	508	508	0	557	38	17	
5	0	0	0	0	508	508	0	557	38	17	
6	0	0	0	0	507	508	0	536	38	17	
7	0	0	0	0	508	506	0	503	38	17	
8	0	0	0	0	507	507	0	486	39	16	
9	0	0	0	0	508	508	0	496	38	16	
10	0	0	0	0	509	508	0	528	38	16	
11	0	0	0	0	510	507	0	539	38	17	
12	0	0	0	0	510	508	0	526	38	17	
13	0	0	0	0	509	509	0	520	38	17	
14	0	0	0	0	508	508	0	518	38	17	
15	0	0	0	0	511	507	0	522	38	17	
0	0	0	0	0	510	508	0	531	39	16	
1	0	0	0	0	508	509	0	519	38	16	
2	0	0	0	0	511	510	0	505	38	16	
3	0	0	0	0	509	508	0	496	38	17	
4	0	0	0	0	510	508	0	513	38	17	
5	0	0	0	0	509	507	0	536	38	17	
6	0	0	0	0	513	506	0	521	38	17	
7	0	0	0	0	509	507	0	518	38	17	
8	0	0	0	0	508	507	0	520	39	16	
9	0	0	0	0	507	506	0	524	38	16	
10	0	0	0	0	506	507	0	521	38	16	
11	0	0	0	0	508	508	0	516	38	16	
12	0	0	0	0	513	510	0	513	38	17	
13	0	0	0	0	512	510	0	508	38	17	
14	0	0	0	0	508	509	0	502	38	17	
15	0	0	0	0	510	510	0	504	38	17	
0	0	0	0	0	507	509	0	512	39	17	
1	0	0	0	0	508	510	0	519	38	16	
2	0	0	0	0	510	511	0	528	38	16	
3	0	0	0	0	508	510	0	536	38	16	
4	0	0	0	0	507	510	0	540	38	17	
5	0	0	0	0	507	508	0	528	38	17	
6	0	0	0	0	509	509	0	519	38	17	
7	0	0	0	0	508	509	0	529	38	17	
8	0	0	0	0	509	508	0	535	39	17	
9	0	0	0	0	509	510	0	540	38	16	
10	0	0	0	0	510	512	0	531	38	16	
11	0	0	0	0	510	512	0	509	38	16	
12	0	0	0	0	512	510	0	493	38	17	
13	0	0	0	0	511	508	0	481	38	17	
14	0	0	0	0	511	508	0	469	38	17	
15	0	0	0	0	509	507	0	457	38	17	
0	0	0	0	0	509	508	0	454	39	17	
1	0	0	0	0	509	509	0	477	38	16	
2	0	0	0	0	507	509	0	501	38	16	
3	0	0	0	0	508	509	0	514	38	16	
4	0	0	0	0	508	508	0	527	38	16	
5	0	0	0	0	508	506	0	528	38	17	
6	0	0	0	0	508	508	0	527	38	17	
7	0	0	0	0	510	508	0	528	38	17	
8	0	0	0	0	510	508	0	513	39	17	
9	0	0	0	0	509	508	0	487	38	17	
10	0	0	0	0	509	507	0	468	38	16	
11	0	0	0	0	509	507	0	459	38	16	
12	0	0	0	0	508	507	0	455	38	16	
13	0	0	0	0	510	508	0	457	38	17	
14	0	0	0	0	510	507	0	441	38	17	
15	0	0	0	0	508	508	0	434	38	17	
0	0	0	0	0	509	508	0	452	39	17	
1	0	0	0	0	509	508	0	472	38	17	
2	0	0	0	0	509	507	0	484	38	16	
3	0	0	0	0	509	507	0	499	38	16	
4	0	0	0	0	511	508	0	528	38	16	
5	0	0	0	0	512	508	0	539	38	17	
6	0	0	0	0	512	508	0	537	38	17	
7	0	0	0	0	512	507	0	519	38	17	
8	0	0	0	0	510	508	0	507	39	17	
9	0	0	0	0	512	508	0	504	38	17	
10	0	0	0	0	509	507	0	496	38	16	
11	0	0	0	0	510	508	0	503	38	16	
12	0	0	0	0	509	508	0	497	38	16	
13	0	0	0	0	507	506	0	485	38	16	
14	0	0	0	0	508	505	0	482	38	17	
15	0	0	0	0	508	505	0	465	38	17	
0	0	0	0	0	508	506	0	457	39	17	
1	0	0	0	0	508	505	0	454	38	17	
2	0	0	0	0	509	505	0	454	38	17	
3	0	0	0	0	508	505	0	461	38	16	
4	0	0	0	0	512	505	0	471	38	16	
5	0	0	0	0	506	505	0	489	38	16	
6	0	0	0	0	508	505	0	488	38	17	
7	0	0	0	0	511	505	0	484	38	17	
8	0	0	0	0	510	506	0	470	39	17	
9	0	0	0	0	511	509	0	456	38	17	
10	0	0	0	0	511	510	0	453	38	17	
11	0	0	0	0	510	509	0	449	38	16	
12	0	0	0	0	510	508	0	457	38	16	
13	0	0	0	0	512	507	0	463	38	16	
14	0	0	0	0	514	508	0	459	38	16	
15	0	0	0	0	510	508	0	474	38	17	
0	0	0	0	0	510	509	0	474	39	17	
1	0	0	0	0	510	509	0	459	38	17	
2	0	0	0	0	510	509	0	459	38	17	
3	0	0	0	0	508	509	0	476	38	16	
4	0	0	0	0	511	508	0	486	38	16	
5	0	0	0	0	507	508	0	472	38	16	
6	0	0	0	0	505	508	0	463	38	16	
7	0	0	0	0	505	506	0	447	38	17	
8	0	0	0	0	507	507	0	448	39	17	
9	0	0	0	0	508	506	0	463	38	17	
10	0	0	0	0	509	507	0	479	38	17	
11	0	0	0	0	508	508	0	473	38	16	
12	0	0	0	0	508	508	0	472	38	16	
13	0	0	0	0	507	507	0	472	38	16	
14	0	0	0	0	506	508	0	482	38	16	
15	0	0	0	0	507	508	0	483	38	17	
0	0	0	0	0	505	508	0	476	39	17	
1	0	0	0	0	508	508	0	479	38	17	
2	0	0	0	0	508	507	0	491	38	17	
3	0	0	0	0	508	509	0	502	38	17	
4	0	0	0	0	506	508	0	518	38	16	
5	0	0	0	0	506	508	0	531	38	16	
6	0	0	0	0	510	507	0	538	38	16	
7	0	0	0	0	510	507	0	547	38	16	
8	0	0	0	0	508	507	0	566	39	17	
9	0	0	0	0	507	507	0	578	38	17	
10	0	0	0	0	511	508	0	572	38	17	
11	0	0	0	0	509	508	0	567	38	17	
12	0	0	0	0	508	508	0	555	38	16	
13	0	0	0	0	509	509	0	543	38	16	
14	0	0	0	0	511	509	0	529	38	16	
15	0	0	0	0	510	509	0	522	38	16	
0	0	0	0	0	509	509	0	517	39	17	
1	0	0	0	0	509	508	0	515	38	17	
2	0	0	0	0	507	509	0	520	38	17	
3	0	0	0	0	509	509	0	522	38	17	
4	0	0	0	0	510	509	0	527	38	16	
5	0	0	0	0	509	510	0	533	38	16	
6	0	0	0	0	510	509	0	527	38	16	
7	0	0	0	0	509	511	0	533	38	16	
8	0	0	0	0	508	511	0	532	39	17	
9	0	0	0	0	509	510	0	538	38	17	
10	0	0	0	0	510	509	0	550	38	17	
11	0	0	0	0	508	508	0	558	38	17	
12	0	0	0	0	504	507	0	554	38	17	
13	0	0	0	0	509	507	0	571	38	16	
14	0	0	0	0	510	507	0	590	38	16	
15	0	0	0	0	511	507	0	585	38	16	
0	0	0	0	0	514	506	0	560	39	16	
1	0	0	0	0	511	508	0	549	38	17	
2	0	0	0	0	513	508	0	560	38	17	
3	0	0	0	0	511	508	0	558	38	17	
4	0	0	0	0	509	510	0	551	38	17	
5	0	0	0	0	509	510	0	548	38	16	
6	0	0	0	0	509	509	0	542	38	16	
7	0	0	0	0	507	510	0	546	38	16	
8	0	0	0	0	509	509	0	550	39	16	
9	0	0	0	0	508	510	0	561	38	17	
10	0	0	0	0	509	511	0	568	38	17	
11	0	0	0	0	511	510	0	569	38	17	
12	0	0	0	0	511	510	0	566	38	17	
13	0	0	0	0	511	510	0	553	38	16	
14	0	0	0	0	511	510	0	532	38	16	
15	0	0	0	0	508	508	0	503	38	16	
0	0	0	0	0	511	508	0	487	39	16	
1	0	0	0	0	508	507	0	484	38	17	
2	0	0	0	0	508	507	0	478	38	17	
3	0	0	0	0	509	509	0	473	38	17	
4	0	0	0	0	508	507	0	474	38	17	
5	0	0	0	0	508	507	0	467	38	17	
6	0	0	0	0	508	508	0	456	38	16	
7	0	0	0	0	508	508	0	444	38	16	
8	0	0	0	0	508	508	0	447	39	16	
9	0	0	0	0	508	507	0	457	38	16	
10	0	0	0	0	511	508	0	471	38	17	
11	0	0	0	0	510	508	0	480	38	17	
12	0	0	0	0	510	508	0	490	38	17	
13	0	0	0	0	511	508	0	499	38	17	
14	0	0	0	0	510	506	0	511	38	16	
15	0	0	0	0	508	506	0	523	38	16	
0	0	0	0	0	510	507	0	535	39	16	
1	0	0	0	0	512	507	0	538	38	16	
2	0	0	0	0	513	505	0	542	38	17	
3	0	0	0	0	512	507	0	551	38	17	
4	0	0	0	0	509	506	0	554	38	17	
5	0	0	0	0	509	506	0	554	38	17	
6	0	0	0	0	509	506	0	547	38	16	
7	0	0	0	0	508	506	0	538	38	16	
8	0	0	0	0	510	507	0	541	39	16	
9	0	0	0	0	508	505	0	537	38	16	
10	0	0	0	0	505	505	0	521	38	17	
11	0	0	0	0	504	506	0	509	38	17	
12	0	0	0	0	507	506	0	515	38	17	
13	0	0	0	0	511	505	0	502	38	17	
14	0	0	0	0	508	504	0	500	38	17	
15	0	0	0	0	507	504	0	490	38	16	
0	0	0	0	0	508	505	0	481	39	16	
1	0	0	0	0	509	507	0	481	38	16	
2	0	0	0	0	512	508	0	487	38	16	
3	0	0	0	0	510	509	0	477	38	17	
4	0	0	0	0	513	509	0	480	38	17	
5	0	0	0	0	509	508	0	487	38	17	
6	0	0	0	0	507	507	0	512	38	17	
7	0	0	0	0	508	508	0	530	38	16	
8	0	0	0	0	509	508	0	527	39	16	
9	0	0	0	0	510	509	0	512	38	16	
10	0	0	0	0	509	508	0	492	38	16	
11	0	0	0	0	509	508	0	469	38	17	
12	0	0	0	0	510	505	0	457	38	17	
13	0	0	0	0	506	505	0	455	38	17	
14	0	0	0	0	506	506	0	446	38	17	
15	0	0	0	0	511	504	0	455	38	17	
0	0	0	0	0	508	503	0	473	39	16	
1	0	0	0	0	510	503	0	499	38	16	
2	0	0	0	0	512	504	0	507	38	16	
3	0	0	0	0	511	504	0	519	38	17	
4	0	0	0	0	508	504	0	518	38	17	
5	0	0	0	0	508	504	0	512	38	17	
6	0	0	0	0	507	503	0	513	38	17	
7	0	0	0	0	509	504	0	508	38	17	
8	0	0	0	0	508	505	0	505	39	16	
9	0	0	0	0	509	506	0	502	38	16	
10	0	0	0	0	510	507	0	507	38	16	
11	0	0	0	0	508	509	0	510	38	16	
12	0	0	0	0	510	509	0	511	38	17	
13	0	0	0	0	512	509	0	505	38	17	
14	0	0	0	0	508	510	0	503	38	17	
15	0	0	0	0	511	510	0	515	38	17	
0	0	0	0	0	508	508	0	532	39	16	
1	0	0	0	0	508	508	0	554	38	16	
2	0	0	0	0	509	507	0	563	38	16	
3	0	0	0	0	510	507	0	552	38	16	
4	0	0	0	0	512	507	0	553	38	17	
5	0	0	0	0	511	509	0	567	38	17	
6	0	0	0	0	511	510	0	569	38	17	
7	0	0	0	0	508	510	0	563	38	17	
8	0	0	0	0	510	510	0	556	39	17	
9	0	0	0	0	509	509	0	554	38	16	
10	0	0	0	0	507	509	0	563	38	16	
11	0	0	0	0	507	508	0	569	38	16	
12	0	0	0	0	509	509	0	561	38	17	
13	0	0	0	0	508	507	0	546	38	17	
14	0	0	0	0	509	506	0	540	38	17	
15	0	0	0	0	509	506	0	532	38	17	
0	0	0	0	0	511	505	0	534	39	17	
1	0	0	0	0	509	505	0	546	38	16	
2	0	0	0	0	510	507	0	558	38	16	
3	0	0	0	0	509	510	0	563	38	16	
4	0	0	0	0	508	509	0	576	38	16	
5	0	0	0	0	509	508	0	583	38	17	
6	0	0	0	0	508	508	0	583	38	17	
7	0	0	0	0	508	510	0	579	38	17	
8	0	0	0	0	506	508	0	580	39	17	
9	0	0	0	0	507	507	0	598	38	16	
10	0	0	0	0	509	507	0	606	38	16	
11	0	0	0	0	510	507	0	599	38	16	
12	0	0	0	0	511	508	0	591	38	16	
13	0	0	0	0	509	508	0	591	38	17	
14	0	0	0	0	508	509	0	588	38	17	
15	0	0	0	0	509	509	0	556	38	17	
0	0	0	0	0	510	509	0	519	39	17	
1	0	0	0	0	510	508	0	497	38	17	
2	0	0	0	0	509	505	0	502	38	16	
3	0	0	0	0	509	508	0	518	38	16	
4	0	0	0	0	509	508	0	538	38	16	
5	0	0	0	0	508	508	0	544	38	17	
6	0	0	0	0	508	506	0	549	38	17	
7	0	0	0	0	507	506	0	558	38	17	
8	0	0	0	0	508	506	0	572	39	17	
9	0	0	0	0	509	505	0	591	38	17	
10	0	0	0	0	508	505	0	583	38	16	
11	0	0	0	0	513	506	0	556	38	16	
12	0	0	0	0	509	508	0	538	38	16	
13	0	0	0	0	509	508	0	532	38	17	
14	0	0	0	0	510	508	0	526	38	17	
15	0	0	0	0	512	508	0	505	38	17	
0	0	0	0	0	509	509	0	481	39	17	
1	0	0	0	0	510	511	0	472	38	17	
2	0	0	0	0	509	508	0	475	38	16	
3	0	0	0	0	508	508	0	455	38	16	
4	0	0	0	0	508	508	0	445	38	16	
5	0	0	0	0	509	508	0	443	38	16	
6	0	0	0	0	507	509	0	457	38	17	
7	0	0	0	0	508	510	0	483	38	17	
8	0	0	0	0	510	511	0	502	39	17	
9	0	0	0	0	512	509	0	503	38	17	
10	0	0	0	0	513	508	0	496	38	17	
11	0	0	0	0	511	509	0	494	38	16	
12	0	0	0	0	513	508	0	488	38	16	
13	0	0	0	0	513	506	0	486	38	16	
14	0	0	0	0	509	507	0	493	38	17	
15	0	0	0	0	509	508	0	506	38	17	
0	0	0	0	0	512	508	0	515	39	17	
1	0	0	0	0	509	508	0	524	38	17	
2	0	0	0	0	510	507	0	543	38	17	
3	0	0	0	0	511	508	0	548	38	16	
4	0	0	0	0	510	510	0	544	38	16	
5	0	0	0	0	510	510	0	554	38	16	
6	0	0	0	0	512	509	0	561	38	17	
7	0	0	0	0	511	511	0	557	38	17	
8	0	0	0	0	510	510	0	548	39	17	
9	0	0	0	0	510	510	0	531	38	17	
10	0	0	0	0	505	511	0	508	38	17	
11	0	0	0	0	506	511	0	502	38	16	
12	0	0	0	0	505	510	0	504	38	16	
13	0	0	0	0	506	511	0	501	38	16	
14	0	0	0	0	509	511	0	497	38	16	
15	0	0	0	0	509	508	0	499	38	17	
0	0	0	0	0	510	507	0	506	39	17	
1	0	0	0	0	512	507	0	504	38	17	
2	0	0	0	0	511	507	0	498	38	17	
3	0	0	0	0	509	506	0	502	38	17	
4	0	0	0	0	509	507	0	513	38	16	
5	0	0	0	0	509	508	0	519	38	16	
6	0	0	0	0	510	508	0	495	38	16	
7	0	0	0	0	508	505	0	461	38	17	
8	0	0	0	0	511	506	0	448	39	17	
9	0	0	0	0	508	507	0	448	38	17	
10	0	0	0	0	508	507	0	456	38	17	
11	0	0	0	0	507	507	0	474	38	17	
12	0	0	0	0	507	505	0	478	38	16	
13	0	0	0	0	506	507	0	476	38	16	
14	0	0	0	0	509	507	0	484	38	16	
15	0	0	0	0	509	508	0	500	38	17	
0	0	0	0	0	509	508	0	507	39	17	
1	0	0	0	0	510	508	0	510	38	17	
2	0	0	0	0	508	508	0	518	38	17	
3	0	0	0	0	508	507	0	523	38	17	
4	0	0	0	0	509	507	0	527	38	16	
5	0	0	0	0	508	508	0	535	38	16	
6	0	0	0	0	510	508	0	538	38	16	
7	0	0	0	0	512	508	0	536	38	16	
8	0	0	0	0	512	509	0	528	39	17	
9	0	0	0	0	511	510	0	536	38	17	
10	0	0	0	0	508	509	0	541	38	17	
11	0	0	0	0	510	508	0	520	38	17	
12	0	0	0	0	510	507	0	479	38	17	
13	0	0	0	0	512	508	0	450	38	16	
14	0	0	0	0	510	509	0	443	38	16	
15	0	0	0	0	509	510	0	428	38	16	
0	0	0	0	0	510	512	0	432	39	17	
1	0	0	0	0	508	512	0	438	38	17	
2	0	0	0	0	509	512	0	449	38	17	
3	0	0	0	0	509	511	0	463	38	17	
4	0	0	0	0	511	510	0	465	38	17	
5	0	0	0	0	511	511	0	460	38	16	
6	0	0	0	0	510	510	0	454	38	16	
7	0	0	0	0	509	509	0	465	38	16	
8	0	0	0	0	509	509	0	475	39	17	
9	0	0	0	0	506	508	0	487	38	17	
10	0	0	0	0	510	508	0	509	38	17	
11	0	0	0	0	509	507	0	504	38	17	
12	0	0	0	0	508	507	0	492	38	17	
13	0	0	0	0	508	506	0	472	38	16	
14	0	0	0	0	509	507	0	449	38	16	
15	0	0	0	0	510	508	0	433	38	16	
0	0	0	0	0	508	508	0	426	39	16	
1	0	0	0	0	508	507	0	430	38	17	
2	0	0	0	0	510	506	0	439	38	17	
3	0	0	0	0	508	507	0	453	38	17	
4	0	0	0	0	509	507	0	481	38	17	
5	0	0	0	0	510	507	0	487	38	17	
6	0	0	0	0	509	508	0	508	38	16	
7	0	0	0	0	509	510	0	518	38	16	
8	0	0	0	0	511	510	0	509	39	16	
9	0	0	0	0	508	509	0	494	38	17	
10	0	0	0	0	507	507	0	474	38	17	
11	0	0	0	0	508	507	0	471	38	17	
12	0	0	0	0	511	508	0	466	38	17	
13	0	0	0	0	508	507	0	468	38	17	
14	0	0	0	0	510	507	0	468	38	16	
15	0	0	0	0	508	507	0	457	38	16	
0	0	0	0	0	508	508	0	449	39	16	
1	0	0	0	0	509	508	0	452	38	17	
2	0	0	0	0	511	508	0	475	38	17	
3	0	0	0	0	507	508	0	483	38	17	
4	0	0	0	0	509	507	0	486	38	17	
5	0	0	0	0	508	509	0	502	38	17	
6	0	0	0	0	507	508	0	511	38	17	
7	0	0	0	0	507	507	0	513	38	16	
8	0	0	0	0	508	509	0	520	39	16	
9	0	0	0	0	506	509	0	527	38	17	
10	0	0	0	0	508	508	0	539	38	17	
11	0	0	0	0	507	508	0	544	38	17	
12	0	0	0	0	508	507	0	541	38	17	
13	0	0	0	0	507	508	0	552	38	17	
14	0	0	0	0	510	509	0	571	38	17	
15	0	0	0	0	508	508	0	577	38	16	
0	0	0	0	0	508	509	0	577	39	16	
1	0	0	0	0	507	510	0	572	38	17	
2	0	0	0	0	507	510	0	568	38	17	
3	0	0	0	0	507	509	0	568	38	17	
4	0	0	0	0	510	508	0	561	38	17	
5	0	0	0	0	511	509	0	557	38	17	
6	0	0	0	0	511	509	0	554	38	17	
7	0	0	0	0	511	509	0	548	38	17	
8	0	0	0	0	511	509	0	545	39	16	
9	0	0	0	0	510	508	0	542	38	17	
10	0	0	0	0	512	506	0	549	38	17	
11	0	0	0	0	510	507	0	554	38	17	
12	0	0	0	0	510	507	0	562	38	17	
13	0	0	0	0	508	508	0	560	38	17	
14	0	0	0	0	508	506	0	555	38	17	
15	0	0	0	0	508	505	0	539	38	17	
0	0	0	0	0	506	504	0	520	39	16	
1	0	0	0	0	507	505	0	515	38	17	
2	0	0	0	0	505	507	0	502	38	17	
3	0	0	0	0	508	508	0	505	38	17	
4	0	0	0	0	508	508	0	518	38	17	
5	0	0	0	0	509	508	0	526	38	17	
6	0	0	0	0	508	508	0	535	38	17	
7	0	0	0	0	510	507	0	540	38	17	
8	0	0	0	0	511	506	0	540	39	17	
9	0	0	0	0	511	507	0	525	38	17	
10	0	0	0	0	509	506	0	509	38	17	
11	0	0	0	0	511	506	0	505	38	17	
12	0	0	0	0	510	507	0	515	38	17	
13	0	0	0	0	510	507	0	543	38	17	
14	0	0	0	0	510	508	0	532	38	17	
15	0	0	0	0	509	507	0	527	38	17	
0	0	0	0	0	510	506	0	522	39	17	
1	0	0	0	0	511	505	0	504	38	17	
2	0	0	0	0	512	504	0	498	38	17	
3	0	0	0	0	510	506	0	502	38	17	
4	0	0	0	0	512	506	0	517	38	17	
5	0	0	0	0	512	507	0	509	38	17	
6	0	0	0	0	510	507	0	492	38	17	
7	0	0	0	0	512	508	0	497	38	17	
8	0	0	0	0	509	510	0	485	39	17	
9	0	0	0	0	509	510	0	493	38	17	
10	0	0	0	0	510	511	0	486	38	17	
11	0	0	0	0	509	511	0	473	38	17	
12	0	0	0	0	510	509	0	469	38	17	
13	0	0	0	0	508	507	0	469	38	17	
14	0	0	0	0	508	508	0	480	38	17	
15	0	0	0	0	508	509	0	497	38	17	
0	0	0	0	0	505	508	0	505	39	17	
1	0	0	0	0	507	508	0	511	38	17	
2	0	0	0	0	506	508	0	517	38	17	
3	0	0	0	0	507	510	0	527	38	17	
4	0	0	0	0	507	509	0	522	38	17	
5	0	0	0	0	508	510	0	519	38	17	
6	0	0	0	0	512	508	0	526	38	17	
7	0	0	0	0	510	508	0	522	38	17	
8	0	0	0	0	509	508	0	518	39	17	
9	0	0	0	0	511	507	0	515	38	17	
10	0	0	0	0	512	507	0	517	38	17	
11	0	0	0	0	512	507	0	504	38	17	
12	0	0	0	0	509	508	0	497	38	17	
13	0	0	0	0	507	508	0	495	38	17	
14	0	0	0	0	510	507	0	488	38	17	
15	0	0	0	0	510	508	0	496	38	17	
0	0	0	0	0	511	507	0	503	39	17	
1	0	0	0	0	509	507	0	512	38	17	
2	0	0	0	0	507	509	0	519	38	17	
3	0	0	0	0	508	510	0	520	38	17	
4	0	0	0	0	512	510	0	522	38	17	
5	0	0	0	0	512	509	0	519	38	17	
6	0	0	0	0	512	508	0	511	38	17	
7	0	0	0	0	511	507	0	507	38	17	
8	0	0	0	0	511	508	0	477	39	17	
9	0	0	0	0	510	507	0	474	38	17	
10	0	0	0	0	512	508	0	486	38	17	
11	0	0	0	0	510	507	0	512	38	17	
12	0	0	0	0	511	508	0	548	38	17	
13	0	0	0	0	511	509	0	576	38	17	
14	0	0	0	0	510	509	0	576	38	17	
15	0	0	0	0	511	507	0	580	38	17	
0	0	0	0	0	512	508	0	588	39	17	
1	0	0	0	0	509	508	0	585	38	17	
2	0	0	0	0	509	509	0	560	38	17	
3	0	0	0	0	506	509	0	527	38	17	
4	0	0	0	0	508	508	0	502	38	17	
5	0	0	0	0	509	507	0	493	38	17	
6	0	0	0	0	507	508	0	493	38	17	
7	0	0	0	0	510	508	0	494	38	17	
8	0	0	0	0	507	509	0	505	39	17	
9	0	0	0	0	510	509	0	515	38	17	
10	0	0	0	0	510	510	0	530	38	17	
11	0	0	0	0	509	510	0	543	38	17	
12	0	0	0	0	508	509	0	547	38	17	
13	0	0	0	0	508	508	0	544	38	17	
14	0	0	0	0	507	508	0	547	38	17	
15	0	0	0	0	509	508	0	560	38	17	
0	0	0	0	0	509	508	0	591	39	17	
1	0	0	0	0	510	510	0	574	38	17	
2	0	0	0	0	511	510	0	556	38	17	
3	0	0	0	0	511	509	0	543	38	17	
4	0	0	0	0	511	510	0	533	38	17	
5	0	0	0	0	510	510	0	543	38	17	
6	0	0	0	0	507	510	0	550	38	17	
7	0	0	0	0	509	509	0	546	38	17	
8	0	0	0	0	508	508	0	539	39	17	
9	0	0	0	0	508	508	0	537	38	17	
10	0	0	0	0	509	507	0	524	38	17	
11	0	0	0	0	508	507	0	510	38	17	
12	0	0	0	0	508	506	0	500	38	17	
13	0	0	0	0	508	505	0	494	38	17	
14	0	0	0	0	508	506	0	497	38	17	
15	0	0	0	0	507	505	0	489	38	17	
0	0	0	0	0	510	507	0	499	39	17	
1	0	0	0	0	511	507	0	513	38	17	
2	0	0	0	0	511	508	0	527	38	17	
3	0	0	0	0	508	508	0	545	38	17	
4	0	0	0	0	509	508	0	571	38	17	
5	0	0	0	0	511	508	0	599	38	17	
6	0	0	0	0	510	507	0	615	38	17	
7	0	0	0	0	509	508	0	620	38	17	
8	0	0	0	0	508	507	0	613	39	17	
9	0	0	0	0	511	508	0	608	38	17	
10	0	0	0	0	511	508	0	603	38	17	
11	0	0	0	0	511	509	0	580	38	17	
12	0	0	0	0	512	510	0	560	38	17	
13	0	0	0	0	508	510	0	549	38	17	
14	0	0	0	0	508	510	0	538	38	17	
15	0	0	0	0	507	508	0	518	38	17	
0	0	0	0	0	508	508	0	495	39	17	
1	0	0	0	0	509	509	0	491	38	17	
2	0	0	0	0	510	509	0	493	38	17	
3	0	0	0	0	510	509	0	494	38	17	
4	0	0	0	0	510	508	0	493	38	17	
5	0	0	0	0	509	509	0	479	38	17	
6	0	0	0	0	507	507	0	463	38	17	
7	0	0	0	0	510	505	0	455	38	17	
8	0	0	0	0	510	505	0	463	39	17	
9	0	0	0	0	510	505	0	452	38	17	
10	0	0	0	0	512	504	0	439	38	17	
11	0	0	0	0	507	506	0	429	38	17	
12	0	0	0	0	510	505	0	428	38	17	
13	0	0	0	0	507	504	0	443	38	17	
14	0	0	0	0	511	505	0	466	38	17	
15	0	0	0	0	510	505	0	484	38	17	
0	0	0	0	0	510	505	0	500	39	17	
1	0	0	0	0	511	506	0	516	38	17	
2	0	0	0	0	511	505	0	534	38	17	
3	0	0	0	0	511	505	0	535	38	17	
4	0	0	0	0	510	505	0	515	38	17	
5	0	0	0	0	507	504	0	519	38	17	
6	0	0	0	0	510	505	0	523	38	17	
7	0	0	0	0	508	505	0	511	38	17	
8	0	0	0	0	507	508	0	490	39	17	
9	0	0	0	0	505	509	0	478	38	17	
10	0	0	0	0	507	510	0	474	38	17	
11	0	0	0	0	511	509	0	481	38	17	
12	0	0	0	0	509	508	0	483	38	17	
13	0	0	0	0	510	508	0	481	38	17	
14	0	0	0	0	511	508	0	466	38	17	
15	0	0	0	0	511	509	0	464	38	17	
0	0	0	0	0	510	510	0	477	39	17	
1	0	0	0	0	508	510	0	492	38	17	
2	0	0	0	0	509	510	0	497	38	17	
3	0	0	0	0	508	510	0	497	38	17	
4	0	0	0	0	511	508	0	489	38	17	
5	0	0	0	0	508	507	0	498	38	17	
6	0	0	0	0	508	506	0	499	38	17	
7	0	0	0	0	509	506	0	486	38	17	
8	0	0	0	0	507	508	0	478	39	17	
9	0	0	0	0	508	507	0	478	38	17	
10	0	0	0	0	509	507	0	473	38	17	
11	0	0	0	0	509	505	0	482	38	17	
12	0	0	0	0	511	506	0	479	38	17	
13	0	0	0	0	511	506	0	482	38	17	
14	0	0	0	0	510	507	0	478	38	17	
15	0	0	0	0	511	510	0	462	38	17	
0	0	0	0	0	509	510	0	453	39	17	
1	0	0	0	0	508	510	0	450	38	17	
2	0	0	0	0	510	510	0	454	38	17	
3	0	0	0	0	507	508	0	458	38	17	
4	0	0	0	0	508	509	0	458	38	17	
5	0	0	0	0	508	510	0	464	38	17	
6	0	0	0	0	507	509	0	468	38	17	
7	0	0	0	0	509	509	0	495	38	17	
8	0	0	0	0	508	508	0	531	39	17	
9	0	0	0	0	508	508	0	553	38	17	
10	0	0	0	0	507	508	0	558	38	17	
11	0	0	0	0	506	506	0	543	38	17	
12	0	0	0	0	509	505	0	515	38	17	
13	0	0	0	0	508	504	0	507	38	17	
14	0	0	0	0	510	504	0	511	38	17	
15	0	0	0	0	508	504	0	508	38	17	
0	0	0	0	0	509	503	0	496	39	17	
1	0	0	0	0	508	503	0	476	38	17	
2	0	0	0	0	507	504	0	470	38	17	
3	0	0	0	0	510	506	0	481	38	17	
4	0	0	0	0	510	507	0	499	38	18	
5	0	0	0	0	511	508	0	512	38	17	
6	0	0	0	0	509	509	0	523	38	17	
7	0	0	0	0	510	510	0	531	38	17	
8	0	0	0	0	511	511	0	538	39	17	
9	0	0	0	0	509	510	0	548	38	17	
10	0	0	0	0	511	509	0	544	38	17	
11	0	0	0	0	511	507	0	540	38	17	
12	0	0	0	0	510	508	0	540	38	17	
13	0	0	0	0	509	507	0	546	38	17	
14	0	0	0	0	510	508	0	551	38	17	
15	0	0	0	0	511	507	0	541	38	17	
0	0	0	0	0	511	506	0	524	39	17	
1	0	0	0	0	512	508	0	509	38	17	
2	0	0	0	0	509	508	0	501	38	17	
3	0	0	0	0	508	508	0	506	38	17	
4	0	0	0	0	507	507	0	509	38	18	
5	0	0	0	0	508	506	0	502	38	18	
6	0	0	0	0	506	507	0	489	38	17	
7	0	0	0	0	507	508	0	478	38	17	
8	0	0	0	0	507	508	0	476	39	17	
9	0	0	0	0	507	510	0	482	38	17	
10	0	0	0	0	506	509	0	496	38	17	
11	0	0	0	0	508	511	0	512	38	17	
12	0	0	0	0	507	511	0	525	38	18	
13	0	0	0	0	508	511	0	526	38	18	
14	0	0	0	0	508	511	0	517	38	18	
15	0	0	0	0	508	510	0	507	38	17	
0	0	0	0	0	509	508	0	496	39	17	
1	0	0	0	0	509	508	0	499	38	17	
2	0	0	0	0	510	507	0	513	38	17	
3	0	0	0	0	510	508	0	511	38	17	
4	0	0	0	0	507	509	0	492	38	17	
5	0	0	0	0	507	509	0	479	38	18	
6	0	0	0	0	507	511	0	487	38	18	
7	0	0	0	0	505	511	0	492	38	17	
8	0	0	0	0	507	511	0	490	39	17	
9	0	0	0	0	507	513	0	489	38	17	
10	0	0	0	0	508	513	0	487	38	17	
11	0	0	0	0	509	513	0	491	38	17	
12	0	0	0	0	512	511	0	502	38	17	
13	0	0	0	0	511	509	0	502	38	18	
14	0	0	0	0	509	509	0	498	38	18	
15	0	0	0	0	508	508	0	500	38	17	
0	0	0	0	0	509	508	0	500	39	17	
1	0	0	0	0	511	507	0	513	38	17	
2	0	0	0	0	511	508	0	533	38	17	
3	0	0	0	0	510	507	0	555	38	17	
4	0	0	0	0	509	506	0	561	38	17	
5	0	0	0	0	507	507	0	563	38	18	
6	0	0	0	0	510	507	0	556	38	18	
7	0	0	0	0	509	506	0	544	38	18	
8	0	0	0	0	510	506	0	530	39	17	
9	0	0	0	0	511	506	0	531	38	17	
10	0	0	0	0	510	506	0	525	38	17	
11	0	0	0	0	512	507	0	518	38	17	
12	0	0	0	0	514	509	0	507	38	17	
13	0	0	0	0	511	509	0	492	38	18	
14	0	0	0	0	513	508	0	484	38	18	
15	0	0	0	0	513	508	0	483	38	18	
0	0	0	0	0	512	505	0	491	39	17	
1	0	0	0	0	513	507	0	491	38	17	
2	0	0	0	0	513	507	0	496	38	17	
3	0	0	0	0	510	507	0	504	38	17	
4	0	0	0	0	510	508	0	504	38	17	
5	0	0	0	0	508	508	0	506	38	18	
6	0	0	0	0	509	510	0	500	38	18	
7	0	0	0	0	509	511	0	489	38	18	
8	0	0	0	0	508	508	0	485	39	18	
9	0	0	0	0	508	508	0	483	38	17	
10	0	0	0	0	508	508	0	480	38	17	
11	0	0	0	0	509	508	0	471	38	17	
12	0	0	0	0	510	508	0	463	38	17	
13	0	0	0	0	510	507	0	456	38	18	
14	0	0	0	0	510	506	0	456	38	18	
15	0	0	0	0	507	505	0	456	38	18	
0	0	0	0	0	506	507	0	459	39	18	
1	0	0	0	0	508	505	0	455	38	17	
2	0	0	0	0	508	506	0	460	38	17	
3	0	0	0	0	507	507	0	483	38	17	
4	0	0	0	0	507	507	0	491	38	17	
5	0	0	0	0	508	507	0	499	38	18	
6	0	0	0	0	510	505	0	496	38	18	
7	0	0	0	0	509	506	0	480	38	18	
8	0	0	0	0	510	507	0	476	39	18	
9	0	0	0	0	508	507	0	492	38	18	
10	0	0	0	0	511	505	0	512	38	17	
11	0	0	0	0	510	504	0	523	38	17	
12	0	0	0	0	508	504	0	518	38	17	
13	0	0	0	0	509	504	0	505	38	17	
14	0	0	0	0	507	505	0	499	38	18	
15	0	0	0	0	508	507	0	502	38	18	
0	0	0	0	0	508	507	0	527	39	18	
1	0	0	0	0	507	506	0	534	38	18	
2	0	0	0	0	510	506	0	527	38	17	
3	0	0	0	0	505	507	0	516	38	17	
4	0	0	0	0	505	507	0	495	38	17	
5	0	0	0	0	511	505	0	497	38	17	
6	0	0	0	0	508	506	0	512	38	18	
7	0	0	0	0	509	508	0	501	38	18	
8	0	0	0	0	510	508	0	512	39	18	
9	0	0	0	0	510	508	0	504	38	18	
10	0	0	0	0	509	508	0	498	38	18	
11	0	0	0	0	512	508	0	506	38	17	
12	0	0	0	0	511	508	0	513	38	17	
13	0	0	0	0	510	507	0	507	38	17	
14	0	0	0	0	508	508	0	486	38	18	
15	0	0	0	0	511	508	0	481	38	18	
0	0	0	0	0	511	509	0	497	39	18	
1	0	0	0	0	512	509	0	522	38	18	
2	0	0	0	0	512	507	0	533	38	18	
3	0	0	0	0	510	507	0	533	38	17	
4	0	0	0	0	511	507	0	535	38	17	
5	0	0	0	0	509	507	0	545	38	17	
6	0	0	0	0	512	507	0	556	38	18	
7	0	0	0	0	510	507	0	551	38	18	
8	0	0	0	0	508	507	0	533	39	18	
9	0	0	0	0	508	505	0	518	38	18	
10	0	0	0	0	509	506	0	515	38	18	
11	0	0	0	0	511	510	0	517	38	18	
12	0	0	0	0	509	509	0	519	38	17	
13	0	0	0	0	510	506	0	513	38	17	
14	0	0	0	0	512	505	0	511	38	18	
15	0	0	0	0	509	505	0	521	38	18	
0	0	0	0	0	509	507	0	533	39	18	
1	0	0	0	0	509	506	0	544	38	18	
2	0	0	0	0	508	508	0	546	38	18	
3	0	0	0	0	510	509	0	542	38	18	
4	0	0	0	0	510	508	0	535	38	17	
5	0	0	0	0	509	509	0	519	38	17	
6	0	0	0	0	509	508	0	514	38	18	
7	0	0	0	0	508	510	0	512	38	18	
8	0	0	0	0	507	512	0	516	39	18	
9	0	0	0	0	504	509	0	539	38	18	
