timestamp,signal
0,508
1,515
2,519
3,504
4,479
5,463
6,447
7,449
8,439
9,416
10,414
11,433
12,457
13,460
14,445
15,431
16,421
17,430
18,447
19,464
20,481
21,496
22,498
23,494
24,483
25,485
26,496
27,511
28,526
29,522
30,537
31,545
32,547
33,550
34,539
35,530
36,512
37,500
38,488
39,482
40,494
41,506
42,523
43,527
44,532
45,547
46,562
47,566
48,542
49,497
50,472
51,467
52,474
53,476
54,484
55,502
56,515
57,529
58,538
59,537
60,547
61,557
62,554
63,532
64,510
65,502
66,505
67,497
68,515
69,531
70,549
71,555
72,558
73,554
74,536
75,536
76,539
77,537
78,534
79,535
80,553
81,559
82,561
83,565
84,571
85,583
86,596
87,589
88,587
89,592
90,596
91,598
92,592
93,588
94,582
95,577
96,566
97,558
98,563
99,572
100,576
101,570
102,570
103,576
104,571
105,563
106,545
107,535
108,532
109,528
110,512
111,489
112,469
113,440
114,427
115,432
116,446
117,462
118,469
119,466
120,469
121,472
122,471
123,483
124,491
125,515
126,516
127,514
128,496
129,462
130,462
131,479
132,510
133,531
134,548
135,561
136,570
137,571
138,554
139,513
140,495
141,486
142,476
143,466
144,465
145,473
146,486
147,498
148,505
149,499
150,500
151,510
152,518
153,528
154,531
155,533
156,539
157,534
158,542
159,544
160,553
161,553
162,546
163,540
164,525
165,525
166,524
167,521
168,526
169,529
170,533
171,524
172,517
173,508
174,481
175,480
176,490
177,496
178,497
179,486
180,486
181,488
182,486
183,464
184,445
185,467
186,492
187,519
188,551
189,562
190,567
191,563
192,564
193,549
194,510
195,484
196,502
197,505
198,509
199,517
200,522
201,532
202,532
203,559
204,551
205,561
206,567
207,564
208,545
209,506
210,487
211,475
212,456
213,423
214,398
215,403
216,424
217,445
218,468
219,487
220,511
221,525
222,531
223,530
224,524
225,530
226,540
227,543
228,547
229,541
230,532
231,521
232,527
233,551
234,573
235,583
236,579
237,572
238,571
239,581
240,590
241,593
242,588
243,589
244,571
245,560
246,557
247,562
248,544
249,512
250,505
251,506
252,503
253,500
254,500
255,495
256,493
257,499
258,492
259,487
260,475
261,480
262,487
263,483
264,475
265,470
266,467
267,465
268,460
269,452
270,460
271,457
272,450
273,426
274,404
275,416
276,433
277,437
278,436
279,448
280,466
281,486
282,508
283,538
284,559
285,595
286,601
287,602
288,597
289,588
290,583
291,578
292,564
293,545
294,525
295,517
296,525
297,534
298,538
299,531
300,530
301,529
302,527
303,515
304,497
305,497
306,511
307,518
308,518
309,512
310,520
311,533
312,532
313,523
314,505
315,492
316,492
317,489
318,479
319,471
320,474
321,481
322,483
323,470
324,454
325,445
326,455
327,475
328,487
329,491
330,493
331,494
332,491
333,476
334,464
335,465
336,464
337,455
338,437
339,430
340,429
341,429
342,440
343,444
344,453
345,474
346,489
347,504
348,505
349,497
350,500
351,499
352,497
353,496
354,482
355,484
356,510
357,508
358,503
359,496
360,511
361,531
362,544
363,555
364,538
365,527
366,519
367,521
368,515
369,506
370,512
371,535
372,546
373,538
374,515
375,505
376,511
377,524
378,527
379,521
380,520
381,528
382,535
383,543
384,539
385,528
386,524
387,525
388,524
389,509
390,504
391,504
392,500
393,488
394,475
395,489
396,513
397,538
398,542
399,540
400,550
401,563
402,570
403,564
404,544
405,536
406,536
407,545
408,552
409,553
410,557
411,551
412,545
413,547
414,558
415,542
416,542
417,547
418,568
419,558
420,557
421,549
422,533
423,526
424,525
425,535
426,540
427,548
428,559
429,562
430,551
431,544
432,531
433,518
434,505
435,507
436,512
437,499
438,494
439,488
440,499
441,519
442,534
443,538
444,525
445,522
446,511
447,498
448,485
449,468
450,472
451,483
452,492
453,480
454,462
455,463
456,464
457,467
458,467
459,462
460,456
461,454
462,449
463,444
464,450
465,488
466,509
467,510
468,503
469,480
470,464
471,467
472,482
473,475
474,448
475,431
476,428
477,439
478,463
479,488
480,485
481,487
482,483
483,495
484,500
485,504
486,501
487,502
488,494
489,474
490,459
491,451
492,449
493,451
494,462
495,494
496,507
497,513
498,510
499,494
500,487
501,491
502,492
503,487
504,480
505,478
506,480
507,492
508,506
509,506
510,515
511,516
512,527
513,541
514,549
515,564
516,578
517,581
518,582
519,580
520,584
521,594
522,586
523,578
524,560
525,561
526,562
527,578
528,563
529,562
530,557
531,550
532,545
533,543
534,536
535,544
536,548
537,556
538,553
539,523
540,505
541,501
542,500
543,485
544,462
545,456
546,457
547,462
548,456
549,447
550,458
551,481
552,480
553,468
554,454
555,463
556,487
557,509
558,504
559,497
560,501
561,511
562,515
563,501
564,470
565,449
566,436
567,433
568,436
569,437
570,440
571,436
572,446
573,445
574,438
575,434
576,443
577,463
578,488
579,506
580,520
581,532
582,529
583,516
584,500
585,492
586,489
587,481
588,472
589,449
590,447
591,459
592,476
593,495
594,499
595,517
596,546
597,557
598,556
599,544
600,523
601,501
602,490
603,481
604,483
605,499
606,485
607,481
608,495
609,509
610,523
611,542
612,554
613,580
614,585
615,595
616,584
617,558
618,542
619,523
620,502
621,489
622,494
623,500
624,504
625,525
626,539
627,533
628,518
629,501
630,507
631,529
632,543
633,545
634,528
635,543
636,552
637,563
638,540
639,513
640,518
641,537
642,553
643,574
644,559
645,553
646,535
647,521
648,516
649,521
650,535
651,543
652,539
653,531
654,518
655,515
656,532
657,553
658,553
659,546
660,551
661,549
662,553
663,551
664,537
665,528
666,536
667,544
668,550
669,548
670,540
671,529
672,518
673,503
674,483
675,480
676,480
677,485
678,496
679,499
680,505
681,504
682,492
683,495
684,501
685,512
686,519
687,520
688,513
689,498
690,488
691,488
692,484
693,492
694,480
695,475
696,476
697,473
698,471
699,485
700,500
701,519
702,527
703,536
704,540
705,535
706,512
707,488
708,475
709,465
710,461
711,460
712,472
713,484
714,487
715,490
716,455
717,446
718,431
719,415
720,417
721,422
722,432
723,453
724,470
725,494
726,523
727,544
728,555
729,563
730,564
731,555
732,549
733,532
734,495
735,482
736,481
737,484
738,483
739,473
740,469
741,477
742,478
743,481
744,473
745,477
746,484
747,496
748,510
749,518
750,530
751,535
752,530
753,539
754,551
755,555
756,552
757,541
758,537
759,536
760,538
761,542
762,539
763,530
764,515
765,516
766,520
767,511
768,484
769,463
770,455
771,448
772,459
773,461
774,451
775,437
776,444
777,463
778,483
779,482
780,488
781,498
782,507
783,511
784,508
785,521
786,543
787,552
788,551
789,523
790,503
791,504
792,500
793,480
794,463
795,463
796,466
797,472
798,480
799,484
800,484
801,495
802,514
803,532
804,529
805,524
806,519
807,521
808,532
809,540
810,525
811,510
812,501
813,486
814,480
815,501
816,513
817,515
818,510
819,496
820,492
821,496
822,503
823,508
824,506
825,511
826,511
827,512
828,502
829,490
830,492
831,495
832,503
833,503
834,488
835,476
836,484
837,485
838,501
839,514
840,527
841,542
842,540
843,530
844,510
845,505
846,522
847,530
848,538
849,543
850,548
851,551
852,548
853,529
854,514
855,521
856,540
857,554
858,560
859,560
860,563
861,564
862,566
863,555
864,525
865,508
866,516
867,528
868,518
869,497
870,480
871,463
872,460
873,469
874,467
875,465
876,467
877,470
878,459
879,434
880,436
881,441
882,444
883,457
884,474
885,487
886,495
887,510
888,530
889,527
890,531
891,533
892,534
893,539
894,527
895,527
896,535
897,536
898,535
899,533
900,508
901,503
902,484
903,479
904,499
905,520
906,547
907,558
908,562
909,550
910,540
911,536
912,525
913,514
914,495
915,488
916,487
917,480
918,465
919,449
920,449
921,457
922,462
923,474
924,478
925,491
926,487
927,480
928,471
929,457
930,462
931,467
932,460
933,451
934,431
935,420
936,420
937,423
938,423
939,412
940,419
941,436
942,465
943,472
944,476
945,503
946,534
947,554
948,552
949,525
950,517
951,515
952,515
953,513
954,508
955,519
956,525
957,527
958,527
959,526
960,544
961,566
962,580
963,570
964,551
965,547
966,543
967,532
968,526
969,507
970,507
971,514
972,523
973,526
974,521
975,529
976,543
977,555
978,559
979,536
980,528
981,510
982,502
983,487
984,469
985,467
986,447
987,419
988,403
989,381
990,359
991,356
992,377
993,389
994,384
995,403
996,439
997,487
998,494
999,494
1000,492
1001,496
1002,488
1003,481
1004,470
1005,483
1006,503
1007,526
1008,552
1009,568
1010,583
1011,591
1012,590
1013,586
1014,580
1015,591
1016,604
1017,604
1018,580
1019,539
1020,543
1021,542
1022,550
1023,544
1024,527
1025,516
1026,519
1027,532
1028,542
1029,545
1030,562
1031,566
1032,552
1033,539
1034,519
1035,519
1036,525
1037,526
1038,543
1039,562
1040,580
1041,592
1042,589
1043,587
1044,577
1045,573
1046,580
1047,590
1048,600
1049,607
1050,600
1051,590
1052,582
1053,558
1054,528
1055,516
1056,517
1057,528
1058,516
1059,494
1060,493
1061,507
1062,517
1063,515
1064,495
1065,497
1066,504
1067,499
1068,486
1069,473
1070,480
1071,483
1072,494
1073,492
1074,480
1075,483
1076,493
1077,496
1078,499
1079,495
1080,511
1081,522
1082,524
1083,516
1084,506
1085,501
1086,498
1087,505
1088,505
1089,498
1090,501
1091,492
1092,480
1093,477
1094,488
1095,498
1096,498
1097,488
1098,459
1099,435
1100,435
1101,443
1102,453
1103,464
1104,472
1105,483
1106,497
1107,498
1108,509
1109,500
1110,514
1111,525
1112,531
1113,520
1114,492
1115,488
1116,500
1117,510
1118,515
1119,516
1120,531
1121,556
1122,572
1123,563
1124,533
1125,519
1126,510
1127,493
1128,473
1129,455
1130,460
1131,469
1132,481
1133,500
1134,529
1135,546
1136,559
1137,567
1138,580
1139,585
1140,571
1141,551
1142,540
1143,538
1144,534
1145,551
1146,535
1147,504
1148,496
1149,487
1150,485
1151,477
1152,480
1153,481
1154,487
1155,503
1156,517
1157,529
1158,537
1159,536
1160,539
1161,542
1162,536
1163,526
1164,506
1165,496
1166,493
1167,491
1168,490
1169,490
1170,504
1171,513
1172,518
1173,525
1174,539
1175,540
1176,528
1177,529
1178,515
1179,503
1180,509
1181,518
1182,522
1183,514
1184,510
1185,507
1186,485
1187,479
1188,487
1189,490
1190,495
1191,501
1192,499
1193,487
1194,482
1195,496
1196,500
1197,509
1198,517
1199,507
1200,505
1201,526
1202,544
1203,556
1204,523
1205,496
1206,485
1207,472
1208,464
1209,451
1210,457
1211,463
1212,463
1213,464
1214,475
1215,487
1216,515
1217,540
1218,563
1219,570
1220,558
1221,527
1222,514
1223,512
1224,514
1225,521
1226,520
1227,530
1228,518
1229,501
1230,500
1231,492
1232,483
1233,470
1234,455
1235,452
1236,465
1237,478
1238,497
1239,513
1240,523
1241,527
1242,523
1243,510
1244,496
1245,499
1246,511
1247,524
1248,529
1249,509
1250,493
1251,481
1252,483
1253,472
1254,457
1255,467
1256,496
1257,527
1258,547
1259,540
1260,538
1261,552
1262,549
1263,541
1264,524
1265,518
1266,505
1267,491
1268,469
1269,459
1270,475
1271,487
1272,513
1273,513
1274,501
1275,517
1276,546
1277,555
1278,560
1279,569
1280,579
1281,576
1282,551
1283,544
1284,565
1285,591
1286,601
1287,585
1288,570
1289,555
1290,544
1291,539
1292,542
1293,557
1294,564
1295,573
1296,566
1297,547
1298,543
1299,542
1300,542
1301,539
1302,524
1303,504
1304,483
1305,475
1306,471
1307,469
1308,460
1309,453
1310,468
1311,498
1312,505
1313,504
1314,478
1315,471
1316,479
1317,494
1318,510
1319,518
1320,536
1321,551
1322,563
1323,569
1324,565
1325,570
1326,579
1327,565
1328,550
1329,523
1330,504
1331,486
1332,476
1333,481
1334,480
1335,486
1336,492
1337,499
1338,510
1339,513
1340,523
1341,525
1342,521
1343,521
1344,523
1345,528
1346,535
1347,534
1348,520
1349,499
1350,487
1351,472
1352,463
1353,466
1354,459
1355,462
1356,476
1357,495
1358,516
1359,528
1360,536
1361,544
1362,569
1363,575
1364,566
1365,559
1366,551
1367,548
1368,528
1369,511
1370,511
1371,508
1372,498
1373,499
1374,493
1375,487
1376,487
1377,495
1378,509
1379,499
1380,500
1381,504
1382,504
1383,498
1384,492
1385,503
1386,521
1387,531
1388,540
1389,534
1390,531
1391,526
1392,517
1393,499
1394,494
1395,506
1396,528
1397,547
1398,553
1399,536
1400,531
1401,529
1402,517
1403,504
1404,482
1405,473
1406,466
1407,468
1408,468
1409,463
1410,458
1411,469
1412,485
1413,474
1414,452
1415,449
1416,459
1417,468
1418,483
1419,496
1420,506
1421,514
1422,519
1423,508
1424,483
1425,479
1426,475
1427,477
1428,503
1429,493
1430,503
1431,513
1432,523
1433,523
1434,504
1435,508
1436,518
1437,519
1438,516
1439,504
1440,499
1441,506
1442,509
1443,504
1444,506
1445,529
1446,545
1447,559
1448,568
1449,583
1450,588
1451,579
1452,569
1453,566
1454,558
1455,553
1456,551
1457,542
1458,543
1459,541
1460,548
1461,546
1462,546
1463,538
1464,530
1465,532
1466,528
1467,520
1468,516
1469,530
1470,547
1471,563
1472,563
1473,560
1474,546
1475,539
1476,533
1477,522
1478,511
1479,501
1480,506
1481,511
1482,521
1483,515
1484,497
1485,487
1486,491
1487,496
1488,510
1489,509
1490,523
1491,539
1492,558
1493,536
1494,500
1495,485
1496,478
1497,470
1498,467
1499,461
1500,465
1501,477
1502,494
1503,489
1504,465
1505,452
1506,453
1507,456
1508,448
1509,449
1510,464
1511,468
1512,479
1513,497
1514,508
1515,510
1516,519
1517,526
1518,532
1519,518
1520,515
1521,518
1522,516
1523,512
1524,499
1525,488
1526,483
1527,477
1528,474
1529,460
1530,441
1531,441
1532,445
1533,451
1534,464
1535,481
1536,487
1537,487
1538,493
1539,496
1540,512
1541,527
1542,539
1543,541
1544,532
1545,537
1546,537
1547,523
1548,507
1549,497
1550,499
1551,495
1552,504
1553,522
1554,512
1555,512
1556,509
1557,506
1558,508
1559,506
1560,520
1561,541
1562,554
1563,556
1564,549
1565,550
1566,543
1567,545
1568,539
1569,534
1570,542
1571,559
1572,571
1573,578
1574,574
1575,569
1576,571
1577,575
1578,544
1579,502
1580,469
1581,455
1582,459
1583,451
1584,428
1585,424
1586,444
1587,469
1588,482
1589,487
1590,500
1591,504
1592,509
1593,494
1594,474
1595,475
1596,487
1597,511
1598,519
1599,523
1600,524
1601,523
1602,519
1603,483
1604,448
1605,444
1606,456
1607,473
1608,495
1609,497
1610,513
1611,532
1612,540
1613,532
1614,521
1615,525
1616,527
1617,525
1618,524
1619,508
1620,502
1621,506
1622,499
1623,492
1624,480
1625,476
1626,486
1627,510
1628,507
1629,487
1630,480
1631,480
1632,489
1633,496
1634,483
1635,474
1636,464
1637,464
1638,455
1639,451
1640,472
1641,476
1642,496
1643,507
1644,508
1645,517
1646,528
1647,537
1648,545
1649,542
1650,544
1651,545
1652,542
1653,541
1654,529
1655,529
1656,534
1657,545
1658,540
1659,527
1660,519
1661,517
1662,496
1663,472
1664,457
1665,463
1666,472
1667,498
1668,492
1669,485
1670,492
1671,510
1672,521
1673,522
1674,524
1675,538
1676,543
1677,551
1678,544
1679,525
1680,500
1681,477
1682,461
1683,465
1684,453
1685,440
1686,432
1687,439
1688,439
1689,430
1690,427
1691,436
1692,436
1693,449
1694,452
1695,463
1696,476
1697,504
1698,525
1699,539
1700,554
1701,553
1702,545
1703,526
1704,504
1705,514
1706,515
1707,518
1708,516
1709,507
1710,502
1711,492
1712,486
1713,491
1714,490
1715,502
1716,519
1717,539
1718,551
1719,554
1720,559
1721,558
1722,559
1723,562
1724,552
1725,553
1726,560
1727,551
1728,546
1729,553
1730,568
1731,579
1732,586
1733,597
1734,605
1735,619
1736,632
1737,615
1738,598
1739,565
1740,545
1741,531
1742,518
1743,506
1744,484
1745,476
1746,472
1747,468
1748,450
1749,420
1750,417
1751,431
1752,457
1753,478
1754,483
1755,507
1756,528
1757,522
1758,509
1759,499
1760,514
1761,515
1762,508
1763,523
1764,537
1765,548
1766,553
1767,568
1768,573
1769,558
1770,536
1771,518
1772,504
1773,497
1774,493
1775,496
1776,496
1777,478
1778,472
1779,465
1780,472
1781,482
1782,492
1783,489
1784,470
1785,460
1786,461
1787,463
1788,464
1789,465
1790,472
1791,482
1792,497
1793,507
1794,496
1795,487
1796,472
1797,456
1798,447
1799,439
1800,431
1801,440
1802,457
1803,471
1804,467
1805,464
1806,445
1807,436
1808,441
1809,445
1810,457
1811,467
1812,492
1813,473
1814,455
1815,455
1816,463
1817,446
1818,437
1819,438
1820,467
1821,497
1822,512
1823,506
1824,490
1825,486
1826,488
1827,497
1828,510
1829,503
1830,502
1831,510
1832,512
1833,516
1834,510
1835,510
1836,519
1837,524
1838,522
1839,512
1840,505
1841,506
1842,512
1843,526
1844,517
1845,539
1846,558
1847,562
1848,563
1849,553
1850,558
1851,569
1852,572
1853,583
1854,581
1855,576
1856,572
1857,572
1858,561
1859,545
1860,542
1861,524
1862,510
1863,493
1864,475
1865,475
1866,483
1867,481
1868,474
1869,475
1870,487
1871,497
1872,503
1873,497
1874,487
1875,489
1876,514
1877,547
1878,560
1879,560
1880,562
1881,564
1882,577
1883,574
1884,556
1885,543
1886,529
1887,518
1888,491
1889,465
1890,457
1891,452
1892,454
1893,438
1894,434
1895,449
1896,476
1897,497
1898,512
1899,520
1900,531
1901,539
1902,543
1903,535
1904,520
1905,507
1906,500
1907,501
1908,509
1909,512
1910,518
1911,537
1912,531
1913,543
1914,558
1915,569
1916,571
1917,566
1918,561
1919,543
1920,537
1921,531
1922,526
1923,503
1924,479
1925,477
1926,488
1927,499
1928,511
1929,514
1930,519
1931,519
1932,521
1933,522
1934,504
1935,497
1936,501
1937,515
1938,519
1939,519
1940,536
1941,562
1942,580
1943,585
1944,565
1945,558
1946,547
1947,536
1948,534
1949,521
1950,522
1951,531
1952,534
1953,553
1954,561
1955,561
1956,548
1957,526
1958,495
1959,453
1960,435
1961,439
1962,453
1963,469
1964,479
1965,480
1966,494
1967,510
1968,525
1969,522
1970,528
1971,542
1972,551
1973,547
1974,534
1975,530
1976,526
1977,514
1978,496
1979,472
1980,459
1981,440
1982,421
1983,404
1984,396
1985,412
1986,440
1987,457
1988,472
1989,477
1990,485
1991,489
1992,497
1993,508
1994,519
1995,523
1996,529
1997,520
1998,512
1999,512
