timestamp,signal
0,519
1,507
2,492
3,490
4,492
5,502
6,513
7,502
8,492
9,489
10,485
11,486
12,482
13,476
14,472
15,488
16,499
17,513
18,515
19,513
20,506
21,511
22,532
23,531
24,518
25,503
26,508
27,524
28,543
29,551
30,545
31,541
32,545
33,546
34,559
35,544
36,534
37,538
38,531
39,516
40,495
41,504
42,523
43,536
44,542
45,522
46,525
47,527
48,542
49,550
50,530
51,513
52,511
53,521
54,513
55,499
56,502
57,512
58,518
59,501
60,469
61,451
62,444
63,445
64,451
65,455
66,459
67,457
68,459
69,468
70,470
71,484
72,494
73,513
74,534
75,537
76,545
77,555
78,553
79,546
80,531
81,542
82,565
83,591
84,575
85,535
86,505
87,486
88,502
89,520
90,521
91,539
92,562
93,572
94,571
95,559
96,560
97,551
98,529
99,515
100,483
101,472
102,480
103,495
104,513
105,504
106,505
107,521
108,528
109,540
110,517
111,526
112,525
113,535
114,528
115,516
116,509
117,512
118,510
119,504
120,495
121,494
122,501
123,488
124,488
125,484
126,495
127,502
128,488
129,473
130,464
131,466
132,467
133,484
134,487
135,486
136,508
137,530
138,525
139,508
140,485
141,478
142,479
143,474
144,467
145,454
146,468
147,492
148,512
149,524
150,509
151,513
152,518
153,513
154,507
155,479
156,475
157,486
158,501
159,523
160,537
161,563
162,581
163,584
164,575
165,560
166,559
167,563
168,561
169,572
170,578
171,580
172,589
173,599
174,606
175,601
176,612
177,610
178,593
179,571
180,537
181,521
182,516
183,502
184,491
185,480
186,474
187,472
188,473
189,489
190,505
191,524
192,535
193,533
194,528
195,504
196,494
197,496
198,490
199,486
200,478
201,501
202,503
203,506
204,512
205,513
206,540
207,533
208,549
209,539
210,516
211,500
212,490
213,494
214,487
215,477
216,467
217,458
218,467
219,457
220,439
221,428
222,428
223,445
224,473
225,472
226,458
227,452
228,444
229,441
230,426
231,438
232,456
233,472
234,489
235,489
236,507
237,524
238,525
239,536
240,537
241,526
242,536
243,550
244,575
245,577
246,593
247,598
248,593
249,593
250,576
251,561
252,554
253,525
254,511
255,498
256,514
257,540
258,557
259,556
260,542
261,535
262,521
263,507
264,499
265,483
266,484
267,499
268,491
269,492
270,497
271,524
272,546
273,536
274,522
275,510
276,520
277,530
278,522
279,529
280,551
281,578
282,589
283,595
284,587
285,561
286,557
287,559
288,534
289,516
290,481
291,460
292,451
293,447
294,443
295,429
296,440
297,447
298,428
299,411
300,388
301,387
302,406
303,448
304,483
305,501
306,516
307,535
308,535
309,520
310,492
311,478
312,465
313,454
314,456
315,454
316,470
317,483
318,484
319,485
320,483
321,500
322,510
323,514
324,535
325,533
326,549
327,539
328,526
329,517
330,492
331,484
332,479
333,468
334,468
335,478
336,492
337,510
338,518
339,529
340,547
341,580
342,593
343,586
344,576
345,551
346,551
347,529
348,497
349,476
350,454
351,470
352,487
353,486
354,478
355,460
356,453
357,464
358,490
359,496
360,500
361,529
362,547
363,557
364,547
365,518
366,519
367,514
368,508
369,511
370,488
371,496
372,508
373,518
374,518
375,496
376,473
377,465
378,477
379,494
380,496
381,498
382,498
383,514
384,514
385,500
386,504
387,509
388,492
389,483
390,464
391,459
392,460
393,456
394,458
395,465
396,484
397,503
398,517
399,532
400,526
401,540
402,557
403,561
404,564
405,553
406,543
407,539
408,520
409,518
410,505
411,502
412,519
413,543
414,549
415,548
416,568
417,572
418,564
419,548
420,537
421,544
422,548
423,547
424,553
425,543
426,538
427,519
428,494
429,485
430,478
431,487
432,496
433,499
434,509
435,499
436,503
437,505
438,511
439,523
440,531
441,520
442,519
443,519
444,522
445,523
446,526
447,536
448,524
449,518
450,508
451,504
452,504
453,511
454,516
455,511
456,508
457,512
458,521
459,500
460,476
461,460
462,455
463,463
464,448
465,417
466,402
467,404
468,417
469,436
470,442
471,461
472,482
473,474
474,469
475,456
476,462
477,480
478,506
479,521
480,517
481,507
482,504
483,497
484,491
485,480
486,493
487,505
488,507
489,501
490,479
491,484
492,506
493,519
494,521
495,512
496,538
497,576
498,560
499,550
500,514
501,489
502,472
503,459
504,459
505,458
506,479
507,515
508,527
509,533
510,543
511,556
512,577
513,572
514,570
515,567
516,581
517,585
518,583
519,577
520,569
521,572
522,572
523,558
524,540
525,509
526,498
527,487
528,473
529,466
530,438
531,431
532,437
533,449
534,462
535,458
536,478
537,492
538,481
539,485
540,483
541,492
542,494
543,491
544,484
545,462
546,462
547,471
548,478
549,478
550,478
551,505
552,529
553,536
554,532
555,512
556,505
557,514
558,493
559,486
560,473
561,468
562,474
563,484
564,489
565,479
566,487
567,494
568,503
569,510
570,519
571,547
572,577
573,587
574,582
575,563
576,566
577,575
578,580
579,591
580,589
581,583
582,563
583,530
584,518
585,508
586,524
587,514
588,475
589,455
590,463
591,489
592,497
593,491
594,501
595,481
596,476
597,485
598,481
599,477
600,489
601,518
602,537
603,532
604,519
605,504
606,507
607,507
608,509
609,517
610,508
611,508
612,516
613,513
614,504
615,493
616,504
617,529
618,549
619,561
620,551
621,546
622,526
623,512
624,504
625,487
626,493
627,502
628,500
629,509
630,508
631,506
632,518
633,541
634,555
635,552
636,553
637,551
638,551
639,540
640,521
641,502
642,488
643,492
644,492
645,485
646,486
647,485
648,485
649,494
650,488
651,489
652,502
653,520
654,531
655,534
656,542
657,551
658,550
659,558
660,562
661,560
662,563
663,560
664,562
665,551
666,541
667,543
668,546
669,542
670,519
671,528
672,534
673,540
674,532
675,519
676,523
677,534
678,519
679,497
680,470
681,467
682,482
683,486
684,479
685,461
686,447
687,444
688,449
689,457
690,444
691,441
692,452
693,468
694,479
695,479
696,488
697,486
698,488
699,496
700,497
701,508
702,511
703,515
704,519
705,510
706,512
707,534
708,544
709,539
710,531
711,544
712,544
713,543
714,543
715,549
716,562
717,583
718,570
719,562
720,535
721,513
722,492
723,468
724,459
725,445
726,464
727,495
728,512
729,523
730,504
731,489
732,497
733,522
734,560
735,582
736,606
737,639
738,641
739,635
740,612
741,598
742,575
743,559
744,553
745,531
746,521
747,515
748,502
749,490
750,476
751,483
752,495
753,485
754,481
755,479
756,478
757,479
758,469
759,477
760,497
761,527
762,536
763,512
764,486
765,462
766,457
767,468
768,484
769,500
770,502
771,507
772,512
773,510
774,519
775,511
776,529
777,549
778,564
779,586
780,589
781,598
782,602
783,607
784,619
785,607
786,588
787,569
788,547
789,532
790,503
791,479
792,471
793,493
794,489
795,468
796,457
797,453
798,463
799,476
800,478
801,477
802,484
803,491
804,491
805,471
806,477
807,495
808,507
809,516
810,493
811,479
812,474
813,478
814,481
815,466
816,478
817,509
818,537
819,555
820,540
821,530
822,527
823,524
824,522
825,492
826,482
827,483
828,490
829,490
830,469
831,463
832,479
833,481
834,489
835,493
836,494
837,496
838,495
839,514
840,538
841,551
842,561
843,566
844,560
845,539
846,506
847,494
848,487
849,483
850,471
851,463
852,466
853,465
854,473
855,477
856,507
857,540
858,560
859,572
860,564
861,561
862,556
863,546
864,543
865,518
866,510
867,511
868,509
869,512
870,501
871,512
872,533
873,535
874,514
875,491
876,476
877,468
878,463
879,459
880,440
881,445
882,448
883,457
884,479
885,480
886,496
887,511
888,520
889,534
890,551
891,577
892,592
893,588
894,579
895,574
896,588
897,598
898,587
899,575
900,553
901,548
902,555
903,561
904,563
905,560
906,563
907,566
908,563
909,564
910,543
911,540
912,551
913,551
914,553
915,543
916,533
917,519
918,505
919,495
920,482
921,482
922,487
923,488
924,487
925,472
926,482
927,500
928,527
929,536
930,529
931,537
932,556
933,571
934,572
935,562
936,542
937,529
938,528
939,515
940,477
941,463
942,459
943,461
944,455
945,432
946,432
947,439
948,462
949,476
950,476
951,465
952,454
953,462
954,459
955,444
956,448
957,468
958,500
959,512
960,514
961,525
962,531
963,513
964,482
965,443
966,426
967,422
968,403
969,398
970,394
971,411
972,432
973,440
974,442
975,430
976,429
977,432
978,439
979,451
980,463
981,484
982,508
983,523
984,507
985,496
986,500
987,501
988,504
989,499
990,495
991,516
992,537
993,542
994,544
995,530
996,518
997,511
998,489
999,472
1000,470
1001,492
1002,508
1003,511
1004,502
1005,489
1006,495
1007,495
1008,484
1009,481
1010,471
1011,485
1012,491
1013,484
1014,485
1015,489
1016,521
1017,550
1018,555
1019,548
1020,533
1021,529
1022,523
1023,511
1024,503
1025,483
1026,477
1027,467
1028,455
1029,456
1030,456
1031,462
1032,466
1033,473
1034,466
1035,442
1036,433
1037,421
1038,407
1039,385
1040,355
1041,345
1042,361
1043,391
1044,432
1045,445
1046,456
1047,470
1048,487
1049,497
1050,492
1051,508
1052,540
1053,568
1054,582
1055,579
1056,588
1057,599
1058,602
1059,598
1060,574
1061,563
1062,550
1063,531
1064,530
1065,513
1066,517
1067,535
1068,542
1069,552
1070,556
1071,559
1072,554
1073,553
1074,543
1075,536
1076,558
1077,585
1078,596
1079,599
1080,594
1081,596
1082,598
1083,579
1084,548
1085,517
1086,507
1087,514
1088,532
1089,542
1090,536
1091,535
1092,549
1093,564
1094,586
1095,591
1096,600
1097,608
1098,607
1099,603
1100,584
1101,580
1102,589
1103,566
1104,552
1105,519
1106,500
1107,501
1108,505
1109,515
1110,520
1111,530
1112,533
1113,534
1114,527
1115,496
1116,484
1117,485
1118,488
1119,483
1120,475
1121,483
1122,494
1123,487
1124,483
1125,492
1126,519
1127,529
1128,515
1129,497
1130,479
1131,481
1132,481
1133,472
1134,476
1135,473
1136,491
1137,510
1138,521
1139,524
1140,498
1141,490
1142,477
1143,466
1144,457
1145,432
1146,422
1147,425
1148,447
1149,476
1150,486
1151,510
1152,527
1153,540
1154,557
1155,548
1156,551
1157,558
1158,550
1159,527
1160,502
1161,497
1162,499
1163,480
1164,467
1165,448
1166,464
1167,503
1168,511
1169,515
1170,497
1171,496
1172,498
1173,483
1174,469
1175,468
1176,495
1177,512
1178,507
1179,508
1180,523
1181,548
1182,551
1183,537
1184,530
1185,523
1186,529
1187,534
1188,520
1189,520
1190,511
1191,515
1192,534
1193,538
1194,541
1195,535
1196,531
1197,519
1198,494
1199,468
1200,435
1201,431
1202,440
1203,462
1204,465
1205,444
1206,455
1207,470
1208,487
1209,505
1210,501
1211,511
1212,509
1213,500
1214,503
1215,502
1216,516
1217,530
1218,535
1219,531
1220,513
1221,508
1222,508
1223,523
1224,518
1225,489
1226,469
1227,468
1228,493
1229,496
1230,483
1231,488
1232,467
1233,468
1234,477
1235,476
1236,484
1237,498
1238,497
1239,499
1240,491
1241,490
1242,499
1243,501
1244,500
1245,484
1246,491
1247,509
1248,512
1249,511
1250,495
1251,499
1252,493
1253,477
1254,468
1255,436
1256,430
1257,451
1258,479
1259,518
1260,522
1261,523
1262,504
1263,478
1264,473
1265,473
1266,492
1267,514
1268,533
1269,557
1270,558
1271,538
1272,514
1273,516
1274,500
1275,475
1276,465
1277,470
1278,483
1279,480
1280,471
1281,485
1282,500
1283,510
1284,518
1285,512
1286,515
1287,523
1288,527
1289,529
1290,515
1291,519
1292,532
1293,535
1294,542
1295,555
1296,566
1297,564
1298,559
1299,559
1300,559
1301,554
1302,557
1303,546
1304,532
1305,504
1306,501
1307,519
1308,554
1309,575
1310,575
1311,579
1312,577
1313,571
1314,577
1315,580
1316,585
1317,594
1318,575
1319,551
1320,547
1321,556
1322,554
1323,544
1324,534
1325,514
1326,518
1327,543
1328,556
1329,561
1330,556
1331,561
1332,566
1333,571
1334,560
1335,536
1336,520
1337,519
1338,513
1339,502
1340,480
1341,484
1342,500
1343,505
1344,525
1345,530
1346,530
1347,534
1348,539
1349,543
1350,521
1351,516
1352,525
1353,525
1354,524
1355,527
1356,525
1357,536
1358,549
1359,562
1360,561
1361,569
1362,573
1363,568
1364,560
1365,523
1366,516
1367,514
1368,518
1369,495
1370,455
1371,427
1372,396
1373,365
1374,346
1375,342
1376,363
1377,397
1378,433
1379,448
1380,439
1381,420
1382,416
1383,429
1384,433
1385,423
1386,433
1387,460
1388,480
1389,508
1390,494
1391,505
1392,516
1393,520
1394,513
1395,490
1396,485
1397,481
1398,467
1399,467
1400,453
1401,454
1402,463
1403,465
1404,456
1405,423
1406,427
1407,444
1408,461
1409,488
1410,493
1411,519
1412,551
1413,534
1414,522
1415,508
1416,518
1417,541
1418,550
1419,551
1420,567
1421,590
1422,598
1423,602
1424,605
1425,584
1426,578
1427,578
1428,564
1429,548
1430,519
1431,513
1432,511
1433,514
1434,511
1435,498
1436,492
1437,487
1438,485
1439,492
1440,472
1441,481
1442,500
1443,509
1444,505
1445,493
1446,514
1447,526
1448,524
1449,529
1450,520
1451,528
1452,535
1453,518
1454,504
1455,487
1456,483
1457,499
1458,517
1459,536
1460,533
1461,532
1462,517
1463,498
1464,495
1465,480
1466,484
1467,499
1468,504
1469,498
1470,481
1471,491
1472,507
1473,514
1474,520
1475,526
1476,542
1477,535
1478,520
1479,513
1480,489
1481,468
1482,459
1483,451
1484,454
1485,462
1486,499
1487,531
1488,549
1489,550
1490,548
1491,568
1492,588
1493,597
1494,601
1495,592
1496,600
1497,610
1498,592
1499,568
1500,532
1501,511
1502,502
1503,496
1504,502
1505,499
1506,508
1507,528
1508,543
1509,542
1510,519
1511,520
1512,539
1513,536
1514,523
1515,496
1516,494
1517,508
1518,532
1519,544
1520,531
1521,527
1522,533
1523,547
1524,557
1525,555
1526,531
1527,510
1528,514
1529,517
1530,506
1531,506
1532,517
1533,540
1534,560
1535,571
1536,568
1537,563
1538,560
1539,556
1540,537
1541,522
1542,512
1543,511
1544,511
1545,480
1546,469
1547,482
1548,500
1549,520
1550,510
1551,514
1552,520
1553,524
1554,515
1555,499
1556,489
1557,482
1558,494
1559,507
1560,496
1561,503
1562,512
1563,519
1564,526
1565,517
1566,534
1567,539
1568,527
1569,529
1570,536
1571,550
1572,556
1573,537
1574,519
1575,504
1576,523
1577,541
1578,540
1579,530
1580,521
1581,535
1582,549
1583,547
1584,539
1585,514
1586,511
1587,514
1588,496
1589,486
1590,458
1591,460
1592,466
1593,464
1594,468
1595,464
1596,465
1597,465
1598,465
1599,477
1600,467
1601,476
1602,491
1603,498
1604,483
1605,466
1606,456
1607,462
1608,460
1609,474
1610,468
1611,469
1612,476
1613,491
1614,499
1615,483
1616,471
1617,480
1618,505
1619,524
1620,512
1621,502
1622,484
1623,472
1624,460
1625,445
1626,444
1627,447
1628,451
1629,444
1630,434
1631,447
1632,462
1633,469
1634,468
1635,473
1636,494
1637,521
1638,534
1639,533
1640,513
1641,515
1642,534
1643,556
1644,561
1645,540
1646,538
1647,546
1648,558
1649,568
1650,559
1651,554
1652,549
1653,550
1654,548
1655,530
1656,531
1657,545
1658,543
1659,529
1660,513
1661,515
1662,520
1663,515
1664,509
1665,504
1666,506
1667,521
1668,534
1669,542
1670,542
1671,546
1672,535
1673,511
1674,493
1675,481
1676,487
1677,493
1678,498
1679,480
1680,451
1681,444
1682,448
1683,446
1684,433
1685,409
1686,422
1687,441
1688,450
1689,461
1690,445
1691,446
1692,450
1693,445
1694,448
1695,445
1696,464
1697,492
1698,513
1699,530
1700,517
1701,524
1702,533
1703,523
1704,505
1705,478
1706,483
1707,499
1708,513
1709,526
1710,527
1711,531
1712,524
1713,513
1714,512
1715,504
1716,515
1717,530
1718,534
1719,535
1720,536
1721,547
1722,542
1723,516
1724,500
1725,480
1726,464
1727,460
1728,440
1729,432
1730,404
1731,407
1732,440
1733,466
1734,481
1735,482
1736,509
1737,539
1738,553
1739,563
1740,552
1741,551
1742,545
1743,537
1744,532
1745,518
1746,516
1747,511
1748,511
1749,485
1750,466
1751,478
1752,488
1753,486
1754,487
1755,476
1756,483
1757,495
1758,473
1759,493
1760,516
1761,543
1762,563
1763,568
1764,560
1765,546
1766,554
1767,557
1768,543
1769,536
1770,521
1771,504
1772,504
1773,524
1774,532
1775,526
1776,528
1777,523
1778,524
1779,525
1780,517
1781,502
1782,478
1783,476
1784,481
1785,471
1786,470
1787,470
1788,480
1789,481
1790,487
1791,483
1792,487
1793,493
1794,492
1795,481
1796,491
1797,518
1798,524
1799,513
1800,491
1801,494
1802,505
1803,516
1804,525
1805,503
1806,505
1807,526
1808,545
1809,557
1810,533
1811,523
1812,506
1813,490
1814,499
1815,494
1816,514
1817,541
1818,553
1819,561
1820,549
1821,548
1822,545
1823,545
1824,539
1825,536
1826,550
1827,572
1828,571
1829,559
1830,534
1831,523
1832,497
1833,466
1834,455
1835,435
1836,443
1837,466
1838,479
1839,484
1840,476
1841,482
1842,489
1843,493
1844,489
1845,468
1846,480
1847,485
1848,471
1849,464
1850,444
1851,441
1852,440
1853,447
1854,450
1855,438
1856,455
1857,485
1858,508
1859,523
1860,516
1861,514
1862,528
1863,545
1864,539
1865,520
1866,504
1867,500
1868,512
1869,525
1870,520
1871,522
1872,528
1873,544
1874,539
1875,514
1876,497
1877,485
1878,486
1879,474
1880,459
1881,463
1882,479
1883,494
1884,505
1885,494
1886,509
1887,529
1888,537
1889,534
1890,514
1891,511
1892,512
1893,515
1894,518
1895,504
1896,517
1897,541
1898,543
1899,531
1900,498
1901,494
1902,489
1903,484
1904,493
1905,497
1906,508
1907,523
1908,534
1909,526
1910,528
1911,521
1912,536
1913,550
1914,568
1915,577
1916,591
1917,590
1918,563
1919,537
1920,514
1921,504
1922,509
1923,516
1924,533
1925,535
1926,518
1927,501
1928,494
1929,490
1930,490
1931,499
1932,505
1933,509
1934,510
1935,494
1936,491
1937,494
1938,507
1939,520
1940,513
1941,520
1942,526
1943,523
1944,521
1945,507
1946,496
1947,505
1948,511
1949,508
1950,489
1951,493
1952,500
1953,497
1954,492
1955,481
1956,490
1957,526
1958,541
1959,553
1960,561
1961,572
1962,587
1963,578
1964,551
1965,519
1966,521
1967,542
1968,545
1969,538
1970,518
1971,518
1972,525
1973,528
1974,528
1975,517
1976,511
1977,517
1978,528
1979,540
1980,535
1981,527
1982,523
1983,509
1984,493
1985,459
1986,455
1987,471
1988,485
1989,491
1990,482
1991,490
1992,496
1993,507
1994,521
1995,483
1996,482
1997,492
1998,498
1999,508
