timestamp,signal
0,521
1,525
2,524
3,521
4,510
5,506
6,512
7,514
8,515
9,506
10,499
11,492
12,487
13,486
14,479
15,481
16,483
17,491
18,505
19,513
20,516
21,512
22,521
23,519
24,518
25,515
26,503
27,503
28,508
29,500
30,492
31,503
32,518
33,527
34,527
35,524
36,509
37,497
38,477
39,448
40,441
41,451
42,467
43,475
44,474
45,477
46,488
47,496
48,495
49,492
50,483
51,484
52,478
53,477
54,473
55,475
56,485
57,495
58,507
59,511
60,518
61,513
62,511
63,519
64,516
65,510
66,508
67,512
68,522
69,519
70,518
71,508
72,505
73,510
74,522
75,526
76,533
77,551
78,569
79,578
80,577
81,570
82,568
83,561
84,535
85,522
86,524
87,516
88,508
89,502
90,499
91,496
92,488
93,492
94,477
95,481
96,494
97,494
98,492
99,500
100,516
101,525
102,525
103,514
104,513
105,512
106,518
107,518
108,519
109,507
110,494
111,486
112,492
113,485
114,495
115,498
116,485
117,476
118,469
119,465
120,476
121,494
122,529
123,547
124,550
125,541
126,517
127,496
128,491
129,496
130,500
131,508
132,510
133,511
134,509
135,519
136,522
137,525
138,521
139,486
140,482
141,480
142,482
143,486
144,479
145,490
146,510
147,531
148,553
149,557
150,559
151,548
152,531
153,531
154,528
155,526
156,517
157,513
158,506
159,510
160,534
161,553
162,548
163,540
164,527
165,534
166,515
167,510
168,515
169,506
170,499
171,502
172,500
173,508
174,517
175,530
176,531
177,523
178,519
179,520
180,515
181,511
182,502
183,508
184,512
185,512
186,502
187,496
188,499
189,502
190,502
191,498
192,499
193,508
194,500
195,493
196,495
197,507
198,521
199,528
200,543
201,551
202,555
203,560
204,558
205,570
206,574
207,563
208,562
209,563
210,566
211,564
212,556
213,551
214,543
215,537
216,538
217,542
218,527
219,516
220,518
221,527
222,526
223,510
224,483
225,463
226,456
227,447
228,461
229,477
230,483
231,477
232,465
233,473
234,470
235,470
236,466
237,463
238,463
239,466
240,474
241,487
242,464
243,444
244,434
245,427
246,421
247,413
248,422
249,447
250,468
251,494
252,495
253,493
254,509
255,531
256,563
257,584
258,594
259,585
260,561
261,537
262,511
263,491
264,490
265,496
266,498
267,496
268,489
269,467
270,454
271,449
272,446
273,455
274,467
275,477
276,488
277,491
278,483
279,484
280,483
281,483
282,486
283,499
284,492
285,499
286,494
287,487
288,488
289,475
290,469
291,472
292,487
293,506
294,524
295,544
296,546
297,529
298,516
299,512
300,506
301,489
302,470
303,472
304,471
305,474
306,484
307,488
308,503
309,508
310,507
311,509
312,492
313,486
314,491
315,509
316,524
317,528
318,536
319,542
320,538
321,533
322,524
323,518
324,515
325,519
326,526
327,509
328,490
329,478
330,480
331,490
332,489
333,488
334,487
335,494
336,510
337,514
338,519
339,535
340,549
341,564
342,579
343,599
344,608
345,624
346,619
347,615
348,599
349,586
350,586
351,591
352,600
353,593
354,583
355,590
356,602
357,607
358,587
359,565
360,548
361,546
362,527
363,516
364,505
365,487
366,481
367,500
368,505
369,513
370,526
371,526
372,511
373,508
374,496
375,499
376,495
377,473
378,461
379,446
380,457
381,478
382,503
383,517
384,526
385,532
386,529
387,527
388,527
389,514
390,501
391,493
392,483
393,476
394,482
395,496
396,506
397,509
398,514
399,517
400,533
401,556
402,559
403,557
404,561
405,557
406,549
407,547
408,544
409,538
410,542
411,543
412,531
413,521
414,504
415,498
416,510
417,525
418,538
419,538
420,536
421,523
422,503
423,494
424,477
425,477
426,494
427,496
428,515
429,527
430,530
431,535
432,542
433,545
434,534
435,518
436,506
437,498
438,487
439,481
440,486
441,501
442,505
443,501
444,496
445,499
446,501
447,500
448,511
449,526
450,539
451,542
452,533
453,527
454,524
455,515
456,503
457,497
458,504
459,508
460,503
461,484
462,463
463,442
464,439
465,466
466,491
467,512
468,531
469,539
470,534
471,521
472,503
473,497
474,500
475,515
476,524
477,512
478,511
479,512
480,511
481,505
482,480
483,467
484,471
485,480
486,500
487,514
488,539
489,560
490,575
491,571
492,558
493,549
494,525
495,501
496,496
497,496
498,492
499,482
500,486
501,482
502,486
503,513
504,516
505,534
506,536
507,535
508,544
509,536
510,520
511,499
512,491
513,487
514,491
515,500
516,506
517,499
518,492
519,487
520,491
521,492
522,490
523,488
524,478
525,476
526,467
527,438
528,423
529,427
530,448
531,476
532,494
533,493
534,488
535,485
536,490
537,500
538,512
539,529
540,527
541,538
542,561
543,585
544,598
545,602
546,585
547,565
548,553
549,551
550,549
551,535
552,519
553,506
554,502
555,475
556,468
557,483
558,491
559,493
560,505
561,512
562,515
563,494
564,464
565,447
566,453
567,467
568,493
569,511
570,511
571,498
572,479
573,471
574,453
575,464
576,484
577,489
578,499
579,507
580,508
581,517
582,521
583,523
584,504
585,508
586,515
587,512
588,511
589,505
590,500
591,478
592,455
593,457
594,474
595,499
596,522
597,525
598,532
599,543
600,549
601,559
602,566
603,572
604,578
605,586
606,583
607,576
608,567
609,552
610,547
611,543
612,544
613,545
614,535
615,519
616,499
617,492
618,486
619,488
620,502
621,513
622,540
623,551
624,547
625,536
626,517
627,529
628,546
629,556
630,556
631,562
632,551
633,555
634,558
635,560
636,551
637,543
638,545
639,538
640,530
641,528
642,528
643,530
644,531
645,523
646,497
647,473
648,472
649,462
650,459
651,467
652,473
653,479
654,486
655,492
656,501
657,500
658,485
659,476
660,476
661,493
662,516
663,520
664,510
665,504
666,513
667,515
668,504
669,496
670,506
671,500
672,494
673,492
674,478
675,455
676,432
677,427
678,425
679,436
680,436
681,433
682,439
683,449
684,479
685,507
686,524
687,534
688,533
689,539
690,547
691,547
692,547
693,536
694,527
695,532
696,532
697,529
698,535
699,525
700,520
701,522
702,527
703,532
704,529
705,526
706,508
707,486
708,479
709,470
710,480
711,484
712,489
713,494
714,493
715,499
716,513
717,516
718,505
719,494
720,500
721,518
722,530
723,538
724,540
725,544
726,547
727,537
728,527
729,513
730,518
731,527
732,531
733,524
734,519
735,521
736,529
737,534
738,536
739,523
740,518
741,504
742,479
743,459
744,438
745,435
746,439
747,444
748,449
749,450
750,449
751,464
752,465
753,481
754,490
755,483
756,464
757,450
758,443
759,448
760,454
761,474
762,486
763,512
764,539
765,560
766,577
767,573
768,540
769,503
770,467
771,436
772,409
773,406
774,406
775,404
776,413
777,425
778,438
779,441
780,452
781,476
782,484
783,488
784,490
785,495
786,504
787,501
788,508
789,520
790,525
791,532
792,533
793,537
794,547
795,543
796,540
797,531
798,537
799,544
800,552
801,540
802,516
803,504
804,513
805,539
806,546
807,544
808,544
809,534
810,530
811,547
812,554
813,551
814,545
815,554
816,543
817,533
818,529
819,523
820,523
821,527
822,536
823,545
824,543
825,542
826,547
827,552
828,555
829,560
830,556
831,541
832,525
833,512
834,506
835,515
836,528
837,529
838,519
839,497
840,484
841,483
842,479
843,464
844,457
845,474
846,485
847,485
848,492
849,511
850,515
851,526
852,529
853,536
854,540
855,545
856,545
857,525
858,505
859,489
860,482
861,478
862,463
863,447
864,436
865,448
866,475
867,484
868,497
869,510
870,526
871,525
872,505
873,481
874,470
875,480
876,493
877,498
878,477
879,457
880,452
881,464
882,451
883,448
884,463
885,465
886,466
887,448
888,443
889,452
890,467
891,489
892,476
893,471
894,480
895,497
896,514
897,504
898,498
899,497
900,513
901,537
902,549
903,547
904,554
905,559
906,562
907,558
908,547
909,537
910,542
911,539
912,527
913,510
914,484
915,469
916,464
917,459
918,467
919,485
920,506
921,525
922,535
923,532
924,517
925,500
926,482
927,463
928,464
929,472
930,478
931,492
932,505
933,518
934,521
935,532
936,537
937,544
938,562
939,577
940,582
941,573
942,557
943,542
944,522
945,515
946,512
947,502
948,513
949,536
950,543
951,550
952,540
953,542
954,543
955,547
956,544
957,521
958,506
959,492
960,473
961,468
962,445
963,432
964,430
965,434
966,448
967,458
968,463
969,460
970,460
971,464
972,467
973,460
974,459
975,472
976,488
977,490
978,500
979,516
980,535
981,547
982,545
983,539
984,519
985,500
986,489
987,499
988,519
989,536
990,541
991,550
992,531
993,524
994,521
995,513
996,499
997,477
998,482
999,492
1000,505
1001,512
1002,496
1003,499
1004,493
1005,499
1006,519
1007,538
1008,543
1009,548
1010,554
1011,563
1012,574
1013,582
1014,568
1015,556
1016,547
1017,545
1018,543
1019,534
1020,535
1021,516
1022,511
1023,517
1024,512
1025,517
1026,528
1027,540
1028,546
1029,544
1030,540
1031,532
1032,519
1033,514
1034,507
1035,510
1036,513
1037,501
1038,496
1039,500
1040,520
1041,547
1042,546
1043,531
1044,527
1045,533
1046,527
1047,511
1048,509
1049,523
1050,525
1051,529
1052,533
1053,534
1054,535
1055,536
1056,523
1057,513
1058,513
1059,514
1060,521
1061,520
1062,518
1063,508
1064,501
1065,517
1066,521
1067,504
1068,502
1069,498
1070,503
1071,507
1072,514
1073,519
1074,521
1075,525
1076,523
1077,512
1078,515
1079,528
1080,540
1081,542
1082,523
1083,512
1084,503
1085,502
1086,496
1087,492
1088,490
1089,497
1090,500
1091,513
1092,516
1093,524
1094,519
1095,518
1096,511
1097,495
1098,492
1099,494
1100,508
1101,515
1102,509
1103,501
1104,498
1105,508
1106,517
1107,525
1108,534
1109,547
1110,548
1111,548
1112,556
1113,551
1114,540
1115,535
1116,531
1117,530
1118,528
1119,521
1120,511
1121,491
1122,496
1123,504
1124,511
1125,495
1126,480
1127,483
1128,491
1129,490
1130,499
1131,507
1132,488
1133,468
1134,452
1135,463
1136,478
1137,477
1138,477
1139,475
1140,494
1141,517
1142,511
1143,514
1144,516
1145,519
1146,532
1147,518
1148,514
1149,501
1150,497
1151,499
1152,502
1153,507
1154,499
1155,483
1156,480
1157,485
1158,492
1159,495
1160,498
1161,504
1162,513
1163,515
1164,502
1165,500
1166,496
1167,484
1168,473
1169,473
1170,488
1171,507
1172,512
1173,510
1174,500
1175,500
1176,505
1177,510
1178,523
1179,542
1180,540
1181,547
1182,534
1183,526
1184,524
1185,525
1186,525
1187,515
1188,510
1189,510
1190,520
1191,537
1192,532
1193,518
1194,504
1195,491
1196,493
1197,493
1198,495
1199,502
1200,508
1201,512
1202,504
1203,499
1204,510
1205,527
1206,540
1207,531
1208,527
1209,527
1210,532
1211,535
1212,515
1213,497
1214,481
1215,480
1216,494
1217,484
1218,486
1219,503
1220,523
1221,544
1222,553
1223,559
1224,567
1225,583
1226,586
1227,583
1228,596
1229,604
1230,590
1231,575
1232,551
1233,541
1234,519
1235,500
1236,494
1237,505
1238,501
1239,499
1240,497
1241,487
1242,473
1243,469
1244,471
1245,480
1246,495
1247,500
1248,512
1249,518
1250,513
1251,502
1252,487
1253,484
1254,479
1255,482
1256,493
1257,502
1258,517
1259,528
1260,544
1261,554
1262,560
1263,566
1264,570
1265,574
1266,567
1267,542
1268,509
1269,499
1270,502
1271,504
1272,500
1273,496
1274,485
1275,482
1276,480
1277,479
1278,487
1279,495
1280,508
1281,524
1282,524
1283,509
1284,511
1285,512
1286,509
1287,492
1288,469
1289,450
1290,437
1291,442
1292,460
1293,487
1294,508
1295,514
1296,519
1297,515
1298,510
1299,501
1300,486
1301,474
1302,466
1303,467
1304,464
1305,460
1306,465
1307,480
1308,494
1309,497
1310,510
1311,515
1312,486
1313,456
1314,451
1315,446
1316,446
1317,442
1318,452
1319,464
1320,476
1321,494
1322,510
1323,495
1324,482
1325,455
1326,443
1327,427
1328,424
1329,426
1330,437
1331,459
1332,480
1333,496
1334,496
1335,484
1336,470
1337,461
1338,464
1339,461
1340,446
1341,419
1342,400
1343,413
1344,433
1345,450
1346,476
1347,470
1348,465
1349,460
1350,461
1351,465
1352,478
1353,486
1354,490
1355,490
1356,500
1357,509
1358,517
1359,523
1360,535
1361,544
1362,539
1363,536
1364,524
1365,526
1366,514
1367,494
1368,491
1369,485
1370,489
1371,492
1372,494
1373,499
1374,496
1375,499
1376,496
1377,489
1378,500
1379,515
1380,524
1381,534
1382,540
1383,548
1384,550
1385,559
1386,570
1387,574
1388,579
1389,569
1390,550
1391,533
1392,515
1393,516
1394,518
1395,518
1396,510
1397,486
1398,470
1399,466
1400,471
1401,496
1402,524
1403,538
1404,553
1405,561
1406,559
1407,557
1408,554
1409,560
1410,567
1411,578
1412,593
1413,595
1414,580
1415,564
1416,556
1417,546
1418,540
1419,539
1420,543
1421,558
1422,560
1423,547
1424,533
1425,513
1426,498
1427,478
1428,472
1429,476
1430,470
1431,456
1432,450
1433,454
1434,456
1435,463
1436,475
1437,492
1438,507
1439,512
1440,524
1441,535
1442,537
1443,537
1444,531
1445,542
1446,556
1447,553
1448,536
1449,525
1450,526
1451,526
1452,524
1453,529
1454,547
1455,560
1456,566
1457,548
1458,546
1459,546
1460,534
1461,524
1462,526
1463,525
1464,524
1465,531
1466,546
1467,562
1468,582
1469,588
1470,584
1471,576
1472,571
1473,565
1474,558
1475,543
1476,524
1477,534
1478,550
1479,557
1480,562
1481,568
1482,583
1483,590
1484,572
1485,555
1486,542
1487,524
1488,510
1489,507
1490,516
1491,534
1492,548
1493,560
1494,563
1495,570
1496,587
1497,575
1498,572
1499,569
1500,566
1501,559
1502,552
1503,552
1504,547
1505,535
1506,527
1507,519
1508,510
1509,499
1510,500
1511,495
1512,504
1513,518
1514,532
1515,545
1516,552
1517,547
1518,541
1519,534
1520,532
1521,522
1522,500
1523,488
1524,481
1525,482
1526,481
1527,467
1528,458
1529,455
1530,458
1531,454
1532,442
1533,438
1534,445
1535,460
1536,478
1537,503
1538,512
1539,489
1540,474
1541,478
1542,481
1543,481
1544,476
1545,492
1546,494
1547,508
1548,499
1549,483
1550,480
1551,495
1552,522
1553,511
1554,514
1555,525
1556,531
1557,535
1558,540
1559,536
1560,531
1561,527
1562,527
1563,531
1564,536
1565,530
1566,521
1567,506
1568,485
1569,488
1570,502
1571,521
1572,527
1573,516
1574,507
1575,498
1576,486
1577,476
1578,476
1579,495
1580,509
1581,506
1582,487
1583,479
1584,483
1585,495
1586,508
1587,519
1588,508
1589,496
1590,487
1591,475
1592,456
1593,443
1594,423
1595,431
1596,457
1597,469
1598,489
1599,514
1600,532
1601,544
1602,524
1603,514
1604,518
1605,538
1606,563
1607,571
1608,579
1609,560
1610,551
1611,547
1612,533
1613,530
1614,514
1615,504
1616,505
1617,487
1618,475
1619,462
1620,467
1621,472
1622,469
1623,470
1624,465
1625,476
1626,478
1627,467
1628,468
1629,471
1630,481
1631,488
1632,493
1633,499
1634,508
1635,516
1636,512
1637,495
1638,483
1639,477
1640,488
1641,508
1642,517
1643,527
1644,537
1645,539
1646,508
1647,473
1648,454
1649,456
1650,478
1651,491
1652,490
1653,490
1654,492
1655,506
1656,490
1657,484
1658,489
1659,505
1660,530
1661,549
1662,552
1663,548
1664,538
1665,525
1666,513
1667,480
1668,468
1669,482
1670,497
1671,510
1672,512
1673,517
1674,529
1675,538
1676,540
1677,560
1678,577
1679,574
1680,568
1681,561
1682,551
1683,540
1684,536
1685,542
1686,551
1687,544
1688,533
1689,521
1690,510
1691,494
1692,483
1693,471
1694,464
1695,464
1696,461
1697,449
1698,448
1699,452
1700,459
1701,474
1702,501
1703,525
1704,539
1705,537
1706,535
1707,548
1708,557
1709,542
1710,519
1711,513
1712,516
1713,517
1714,516
1715,507
1716,503
1717,498
1718,493
1719,494
1720,502
1721,495
1722,483
1723,483
1724,486
1725,489
1726,490
1727,499
1728,503
1729,494
1730,499
1731,519
1732,551
1733,556
1734,547
1735,539
1736,534
1737,537
1738,532
1739,515
1740,497
1741,491
1742,498
1743,498
1744,489
1745,489
1746,499
1747,515
1748,509
1749,479
1750,465
1751,458
1752,449
1753,443
1754,451
1755,461
1756,462
1757,462
1758,464
1759,472
1760,487
1761,510
1762,508
1763,501
1764,500
1765,504
1766,511
1767,521
1768,545
1769,556
1770,553
1771,552
1772,540
1773,519
1774,499
1775,490
1776,488
1777,492
1778,494
1779,478
1780,474
1781,480
1782,486
1783,485
1784,483
1785,474
1786,457
1787,457
1788,471
1789,478
1790,468
1791,457
1792,448
1793,457
1794,463
1795,464
1796,465
1797,490
1798,516
1799,545
1800,552
1801,548
1802,540
1803,529
1804,523
1805,515
1806,513
1807,523
1808,523
1809,509
1810,490
1811,485
1812,498
1813,514
1814,512
1815,513
1816,510
1817,508
1818,504
1819,496
1820,488
1821,495
1822,510
1823,526
1824,531
1825,539
1826,547
1827,545
1828,532
1829,522
1830,524
1831,528
1832,513
1833,491
1834,473
1835,476
1836,495
1837,508
1838,514
1839,510
1840,498
1841,498
1842,491
1843,483
1844,481
1845,493
1846,487
1847,467
1848,443
1849,457
1850,481
1851,507
1852,518
1853,518
1854,503
1855,495
1856,497
1857,515
1858,528
1859,535
1860,532
1861,523
1862,506
1863,493
1864,479
1865,476
1866,490
1867,465
1868,461
1869,463
1870,463
1871,472
1872,484
1873,497
1874,519
1875,511
1876,499
1877,482
1878,483
1879,479
1880,480
1881,482
1882,444
1883,424
1884,425
1885,444
1886,465
1887,499
1888,519
1889,527
1890,526
1891,524
1892,526
1893,530
1894,532
1895,535
1896,526
1897,525
1898,538
1899,548
1900,560
1901,559
1902,560
1903,554
1904,548
1905,543
1906,551
1907,540
1908,540
1909,541
1910,537
1911,515
1912,482
1913,462
1914,457
1915,473
1916,493
1917,496
1918,502
1919,511
1920,513
1921,513
1922,491
1923,463
1924,455
1925,464
1926,478
1927,484
1928,492
1929,495
1930,513
1931,543
1932,557
1933,567
1934,575
1935,579
1936,579
1937,581
1938,571
1939,563
1940,557
1941,563
1942,564
1943,542
1944,518
1945,498
1946,492
1947,489
1948,491
1949,490
1950,493
1951,496
1952,493
1953,492
1954,496
1955,502
1956,504
1957,492
1958,493
1959,497
1960,499
1961,505
1962,504
1963,494
1964,488
1965,496
1966,495
1967,485
1968,472
1969,469
1970,476
1971,491
1972,506
1973,513
1974,517
1975,519
1976,524
1977,539
1978,565
1979,580
1980,585
1981,578
1982,575
1983,569
1984,568
1985,558
1986,547
1987,556
1988,573
1989,574
1990,571
1991,563
1992,557
1993,543
1994,536
1995,519
1996,510
1997,514
1998,503
1999,492
