timestamp,signal
0,406
1,422
2,453
3,440
4,455
5,488
6,513
7,526
8,515
9,511
10,518
11,507
12,495
13,476
14,477
15,477
16,481
17,482
18,473
19,459
20,453
21,461
22,459
23,455
24,461
25,472
26,487
27,474
28,451
29,447
30,456
31,472
32,478
33,476
34,491
35,499
36,481
37,468
38,455
39,474
40,496
41,508
42,507
43,500
44,520
45,516
46,523
47,535
48,536
49,534
50,520
51,510
52,514
53,520
54,546
55,565
56,571
57,560
58,540
59,533
60,525
61,521
62,517
63,504
64,515
65,533
66,537
67,548
68,531
69,538
70,547
71,553
72,553
73,539
74,539
75,536
76,525
77,527
78,523
79,537
80,551
81,543
82,548
83,544
84,553
85,560
86,560
87,557
88,542
89,535
90,534
91,513
92,502
93,489
94,502
95,497
96,502
97,503
98,489
99,497
100,505
101,525
102,536
103,529
104,519
105,516
106,528
107,529
108,509
109,486
110,466
111,475
112,492
113,491
114,499
115,511
116,500
117,492
118,471
119,467
120,461
121,447
122,446
123,423
124,429
125,456
126,478
127,497
128,503
129,517
130,529
131,533
132,534
133,529
134,536
135,529
136,520
137,530
138,527
139,529
140,530
141,526
142,519
143,503
144,504
145,508
146,510
147,512
148,493
149,489
150,486
151,472
152,467
153,465
154,482
155,504
156,518
157,524
158,508
159,507
160,516
161,524
162,538
163,534
164,534
165,539
166,536
167,548
168,556
169,572
170,568
171,545
172,531
173,527
174,551
175,571
176,572
177,565
178,543
179,531
180,528
181,514
182,504
183,498
184,513
185,536
186,551
187,555
188,547
189,541
190,529
191,506
192,501
193,495
194,499
195,489
196,472
197,463
198,444
199,440
200,446
201,443
202,436
203,411
204,408
205,422
206,451
207,480
208,477
209,480
210,494
211,505
212,513
213,519
214,543
215,564
216,559
217,552
218,536
219,524
220,528
221,534
222,542
223,529
224,521
225,513
226,519
227,499
228,460
229,433
230,419
231,423
232,417
233,414
234,415
235,419
236,444
237,462
238,471
239,479
240,484
241,483
242,487
243,484
244,487
245,501
246,514
247,529
248,509
249,503
250,505
251,512
252,518
253,505
254,514
255,524
256,527
257,529
258,518
259,526
260,531
261,545
262,552
263,540
264,547
265,568
266,582
267,578
268,538
269,515
270,515
271,519
272,531
273,530
274,532
275,532
276,515
277,503
278,499
279,516
280,529
281,519
282,507
283,504
284,523
285,550
286,564
287,556
288,537
289,534
290,539
291,538
292,548
293,545
294,554
295,549
296,532
297,516
298,491
299,491
300,510
301,518
302,528
303,520
304,516
305,521
306,523
307,526
308,520
309,534
310,553
311,568
312,583
313,575
314,576
315,566
316,556
317,542
318,505
319,481
320,479
321,472
322,460
323,442
324,441
325,460
326,474
327,489
328,480
329,488
330,512
331,540
332,551
333,536
334,517
335,511
336,526
337,530
338,518
339,497
340,477
341,481
342,467
343,438
344,436
345,444
346,450
347,461
348,451
349,465
350,491
351,516
352,524
353,512
354,513
355,528
356,531
357,542
358,529
359,528
360,533
361,540
362,541
363,537
364,549
365,561
366,561
367,556
368,536
369,526
370,532
371,532
372,529
373,519
374,518
375,505
376,487
377,481
378,483
379,503
380,522
381,519
382,519
383,514
384,539
385,561
386,561
387,539
388,499
389,472
390,463
391,454
392,446
393,443
394,473
395,489
396,490
397,496
398,483
399,488
400,498
401,483
402,473
403,457
404,453
405,458
406,469
407,473
408,466
409,461
410,455
411,453
412,452
413,464
414,476
415,487
416,497
417,480
418,457
419,455
420,462
421,477
422,492
423,515
424,524
425,541
426,561
427,571
428,556
429,547
430,547
431,543
432,513
433,467
434,438
435,430
436,425
437,424
438,408
439,417
440,430
441,426
442,429
443,447
444,454
445,479
446,505
447,539
448,535
449,556
450,573
451,584
452,589
453,568
454,559
455,546
456,513
457,493
458,472
459,473
460,481
461,438
462,399
463,363
464,379
465,414
466,448
467,465
468,468
469,459
470,455
471,455
472,478
473,494
474,493
475,482
476,494
477,503
478,507
479,500
480,476
481,478
482,479
483,482
484,488
485,485
486,481
487,468
488,445
489,440
490,458
491,479
492,494
493,484
494,482
495,498
496,518
497,542
498,548
499,554
500,564
501,561
502,561
503,534
504,525
505,530
506,524
507,529
508,525
509,537
510,537
511,547
512,550
513,539
514,548
515,558
516,569
517,573
518,577
519,592
520,604
521,603
522,600
523,590
524,587
525,587
526,575
527,558
528,543
529,555
530,575
531,587
532,587
533,581
534,589
535,602
536,600
537,591
538,577
539,572
540,571
541,566
542,560
543,551
544,565
545,576
546,576
547,561
548,539
549,544
550,546
551,548
552,551
553,529
554,513
555,505
556,493
557,492
558,487
559,504
560,503
561,504
562,507
563,518
564,510
565,496
566,497
567,498
568,495
569,490
570,487
571,510
572,522
573,524
574,524
575,526
576,546
577,535
578,515
579,513
580,524
581,528
582,532
583,526
584,538
585,565
586,566
587,563
588,534
589,508
590,496
591,492
592,486
593,474
594,481
595,486
596,500
597,509
598,490
599,497
600,508
601,518
602,526
603,512
604,505
605,503
606,504
607,504
608,504
609,516
610,517
611,509
612,496
613,484
614,499
615,518
616,519
617,516
618,507
619,512
620,522
621,522
622,520
623,522
624,539
625,564
626,576
627,580
628,557
629,537
630,525
631,526
632,533
633,529
634,534
635,532
636,520
637,515
638,503
639,516
640,532
641,549
642,549
643,520
644,504
645,504
646,512
647,518
648,510
649,494
650,477
651,481
652,474
653,458
654,467
655,483
656,496
657,508
658,496
659,497
660,509
661,503
662,487
663,449
664,435
665,448
666,465
667,487
668,482
669,482
670,488
671,490
672,488
673,465
674,464
675,478
676,478
677,483
678,463
679,457
680,456
681,460
682,480
683,480
684,483
685,489
686,491
687,496
688,493
689,506
690,525
691,546
692,555
693,556
694,569
695,581
696,583
697,553
698,543
699,553
700,555
701,557
702,546
703,539
704,549
705,567
706,564
707,556
708,546
709,549
710,557
711,553
712,542
713,519
714,521
715,526
716,521
717,516
718,500
719,512
720,510
721,498
722,489
723,471
724,463
725,445
726,434
727,444
728,437
729,439
730,449
731,459
732,463
733,449
734,468
735,481
736,482
737,495
738,496
739,514
740,538
741,544
742,566
743,557
744,576
745,584
746,573
747,548
748,505
749,482
750,476
751,457
752,455
753,441
754,451
755,474
756,490
757,507
758,498
759,503
760,507
761,498
762,481
763,456
764,468
765,480
766,489
767,498
768,499
769,514
770,518
771,524
772,523
773,531
774,555
775,582
776,597
777,601
778,604
779,611
780,608
781,592
782,581
783,554
784,538
785,525
786,495
787,476
788,461
789,473
790,492
791,498
792,503
793,510
794,524
795,542
796,547
797,556
798,560
799,573
800,591
801,568
802,558
803,544
804,553
805,560
806,567
807,568
808,550
809,543
810,531
811,511
812,496
813,472
814,479
815,465
816,457
817,459
818,445
819,448
820,460
821,473
822,484
823,494
824,519
825,547
826,567
827,559
828,546
829,530
830,519
831,521
832,506
833,485
834,464
835,440
836,435
837,423
838,423
839,405
840,397
841,422
842,450
843,456
844,467
845,472
846,461
847,460
848,451
849,460
850,462
851,449
852,428
853,407
854,422
855,447
856,479
857,505
858,497
859,499
860,527
861,523
862,531
863,521
864,533
865,542
866,536
867,528
868,512
869,514
870,523
871,526
872,533
873,532
874,555
875,564
876,557
877,551
878,540
879,550
880,563
881,548
882,523
883,487
884,478
885,491
886,499
887,507
888,509
889,527
890,532
891,542
892,534
893,505
894,486
895,476
896,494
897,521
898,526
899,539
900,560
901,568
902,568
903,547
904,551
905,566
906,572
907,572
908,559
909,551
910,537
911,525
912,518
913,500
914,496
915,497
916,495
917,488
918,457
919,456
920,468
921,477
922,473
923,455
924,464
925,477
926,481
927,496
928,502
929,511
930,524
931,524
932,526
933,543
934,563
935,570
936,561
937,548
938,530
939,518
940,516
941,507
942,500
943,496
944,513
945,536
946,547
947,543
948,523
949,515
950,507
951,503
952,500
953,488
954,494
955,506
956,505
957,514
958,502
959,505
960,519
961,524
962,515
963,497
964,498
965,515
966,536
967,539
968,520
969,504
970,499
971,500
972,499
973,481
974,470
975,468
976,488
977,496
978,487
979,498
980,518
981,528
982,534
983,524
984,534
985,550
986,560
987,573
988,566
989,572
990,577
991,594
992,601
993,586
994,576
995,566
996,562
997,556
998,541
999,546
1000,560
1001,537
1002,528
1003,504
1004,506
1005,502
1006,500
1007,505
1008,501
1009,507
1010,510
1011,505
1012,497
1013,481
1014,492
1015,512
1016,506
1017,490
1018,481
1019,495
1020,510
1021,535
1022,546
1023,537
1024,539
1025,541
1026,535
1027,530
1028,511
1029,513
1030,516
1031,512
1032,507
1033,478
1034,467
1035,472
1036,466
1037,455
1038,428
1039,441
1040,450
1041,448
1042,458
1043,457
1044,465
1045,466
1046,472
1047,487
1048,489
1049,494
1050,509
1051,511
1052,494
1053,459
1054,453
1055,449
1056,444
1057,443
1058,430
1059,432
1060,451
1061,474
1062,501
1063,520
1064,549
1065,566
1066,574
1067,571
1068,551
1069,515
1070,479
1071,458
1072,453
1073,453
1074,458
1075,477
1076,505
1077,512
1078,502
1079,496
1080,494
1081,501
1082,502
1083,481
1084,468
1085,470
1086,479
1087,475
1088,457
1089,451
1090,448
1091,434
1092,440
1093,434
1094,443
1095,451
1096,464
1097,476
1098,467
1099,476
1100,487
1101,497
1102,511
1103,510
1104,525
1105,531
1106,536
1107,548
1108,539
1109,548
1110,551
1111,546
1112,533
1113,500
1114,490
1115,494
1116,512
1117,529
1118,530
1119,515
1120,493
1121,492
1122,481
1123,466
1124,461
1125,460
1126,470
1127,475
1128,451
1129,462
1130,480
1131,495
1132,518
1133,523
1134,542
1135,559
1136,555
1137,545
1138,537
1139,540
1140,530
1141,511
1142,495
1143,476
1144,494
1145,523
1146,536
1147,543
1148,527
1149,530
1150,528
1151,518
1152,514
1153,506
1154,517
1155,531
1156,536
1157,535
1158,515
1159,522
1160,523
1161,527
1162,529
1163,520
1164,533
1165,548
1166,556
1167,561
1168,564
1169,568
1170,559
1171,542
1172,544
1173,523
1174,528
1175,531
1176,531
1177,521
1178,516
1179,523
1180,530
1181,531
1182,532
1183,534
1184,556
1185,575
1186,576
1187,561
1188,525
1189,504
1190,501
1191,502
1192,502
1193,487
1194,493
1195,504
1196,507
1197,519
1198,523
1199,544
1200,562
1201,564
1202,559
1203,538
1204,534
1205,538
1206,526
1207,522
1208,511
1209,499
1210,495
1211,487
1212,490
1213,492
1214,510
1215,529
1216,539
1217,535
1218,534
1219,543
1220,549
1221,550
1222,547
1223,544
1224,557
1225,553
1226,528
1227,507
1228,485
1229,481
1230,482
1231,497
1232,515
1233,520
1234,540
1235,554
1236,558
1237,553
1238,539
1239,535
1240,531
1241,522
1242,518
1243,495
1244,476
1245,469
1246,459
1247,465
1248,469
1249,493
1250,513
1251,535
1252,544
1253,541
1254,535
1255,531
1256,535
1257,542
1258,540
1259,531
1260,527
1261,529
1262,537
1263,523
1264,512
1265,510
1266,512
1267,505
1268,484
1269,482
1270,487
1271,485
1272,492
1273,497
1274,508
1275,511
1276,513
1277,521
1278,506
1279,507
1280,522
1281,529
1282,536
1283,519
1284,518
1285,515
1286,489
1287,486
1288,471
1289,470
1290,468
1291,455
1292,455
1293,452
1294,470
1295,488
1296,497
1297,506
1298,518
1299,548
1300,545
1301,539
1302,534
1303,527
1304,523
1305,520
1306,516
1307,510
1308,483
1309,467
1310,461
1311,452
1312,451
1313,436
1314,449
1315,460
1316,465
1317,466
1318,445
1319,447
1320,454
1321,468
1322,478
1323,479
1324,483
1325,488
1326,497
1327,513
1328,512
1329,519
1330,519
1331,513
1332,505
1333,480
1334,480
1335,494
1336,498
1337,490
1338,455
1339,439
1340,430
1341,435
1342,433
1343,429
1344,438
1345,446
1346,471
1347,495
1348,511
1349,521
1350,535
1351,545
1352,552
1353,539
1354,533
1355,526
1356,501
1357,474
1358,451
1359,456
1360,468
1361,502
1362,519
1363,523
1364,526
1365,530
1366,526
1367,522
1368,503
1369,501
1370,509
1371,514
1372,519
1373,506
1374,515
1375,518
1376,512
1377,519
1378,503
1379,497
1380,499
1381,504
1382,505
1383,499
1384,504
1385,503
1386,510
1387,507
1388,484
1389,468
1390,460
1391,471
1392,470
1393,465
1394,474
1395,498
1396,528
1397,547
1398,549
1399,551
1400,557
1401,568
1402,558
1403,536
1404,528
1405,510
1406,497
1407,482
1408,462
1409,471
1410,499
1411,531
1412,542
1413,528
1414,538
1415,545
1416,548
1417,542
1418,511
1419,494
1420,485
1421,483
1422,492
1423,477
1424,487
1425,499
1426,504
1427,512
1428,497
1429,488
1430,475
1431,455
1432,453
1433,454
1434,473
1435,484
1436,492
1437,504
1438,484
1439,486
1440,498
1441,501
1442,493
1443,475
1444,483
1445,498
1446,510
1447,535
1448,546
1449,543
1450,532
1451,536
1452,539
1453,528
1454,538
1455,541
1456,537
1457,539
1458,526
1459,510
1460,498
1461,494
1462,485
1463,456
1464,464
1465,478
1466,476
1467,477
1468,470
1469,480
1470,491
1471,498
1472,513
1473,521
1474,521
1475,521
1476,524
1477,540
1478,550
1479,558
1480,572
1481,571
1482,560
1483,544
1484,551
1485,563
1486,546
1487,529
1488,520
1489,519
1490,503
1491,476
1492,472
1493,473
1494,502
1495,519
1496,527
1497,517
1498,486
1499,484
1500,486
1501,468
1502,455
1503,442
1504,466
1505,504
1506,527
1507,529
1508,513
1509,507
1510,514
1511,533
1512,535
1513,514
1514,508
1515,515
1516,530
1517,545
1518,542
1519,556
1520,566
1521,574
1522,590
1523,587
1524,593
1525,589
1526,580
1527,578
1528,561
1529,551
1530,552
1531,551
1532,557
1533,546
1534,547
1535,545
1536,551
1537,543
1538,531
1539,536
1540,533
1541,511
1542,496
1543,483
1544,493
1545,504
1546,501
1547,498
1548,493
1549,503
1550,500
1551,483
1552,480
1553,496
1554,495
1555,496
1556,478
1557,458
1558,448
1559,457
1560,477
1561,487
1562,492
1563,486
1564,486
1565,496
1566,499
1567,514
1568,528
1569,545
1570,558
1571,551
1572,541
1573,519
1574,497
1575,488
1576,484
1577,487
1578,480
1579,489
1580,501
1581,522
1582,542
1583,538
1584,548
1585,552
1586,560
1587,557
1588,531
1589,527
1590,529
1591,532
1592,525
1593,505
1594,505
1595,524
1596,543
1597,566
1598,566
1599,571
1600,576
1601,556
1602,523
1603,496
1604,488
1605,479
1606,462
1607,462
1608,463
1609,462
1610,467
1611,466
1612,461
1613,454
1614,475
1615,505
1616,525
1617,537
1618,531
1619,533
1620,530
1621,524
1622,518
1623,517
1624,515
1625,515
1626,529
1627,540
1628,525
1629,514
1630,499
1631,486
1632,480
1633,468
1634,481
1635,494
1636,509
1637,522
1638,527
1639,547
1640,558
1641,557
1642,543
1643,521
1644,513
1645,515
1646,521
1647,534
1648,525
1649,515
1650,502
1651,487
1652,498
1653,485
1654,495
1655,503
1656,504
1657,523
1658,516
1659,530
1660,548
1661,555
1662,552
1663,551
1664,554
1665,559
1666,549
1667,534
1668,515
1669,492
1670,476
1671,477
1672,482
1673,471
1674,470
1675,486
1676,489
1677,498
1678,499
1679,522
1680,540
1681,547
1682,553
1683,539
1684,541
1685,529
1686,512
1687,511
1688,506
1689,510
1690,512
1691,496
1692,478
1693,453
1694,455
1695,455
1696,458
1697,474
1698,483
1699,502
1700,511
1701,513
1702,523
1703,517
1704,523
1705,527
1706,514
1707,512
1708,525
1709,545
1710,551
1711,545
1712,541
1713,508
1714,502
1715,495
1716,472
1717,456
1718,431
1719,423
1720,427
1721,446
1722,440
1723,432
1724,438
1725,444
1726,442
1727,445
1728,436
1729,447
1730,472
1731,491
1732,507
1733,502
1734,519
1735,541
1736,517
1737,494
1738,457
1739,455
1740,446
1741,455
1742,468
1743,471
1744,491
1745,507
1746,518
1747,539
1748,535
1749,535
1750,532
1751,510
1752,488
1753,462
1754,460
1755,470
1756,476
1757,486
1758,489
1759,512
1760,526
1761,528
1762,544
1763,544
1764,539
1765,530
1766,507
1767,485
1768,469
1769,479
1770,504
1771,512
1772,521
1773,517
1774,525
1775,523
1776,520
1777,511
1778,498
1779,508
1780,527
1781,528
1782,522
1783,509
1784,521
1785,532
1786,530
1787,526
1788,510
1789,502
1790,499
1791,497
1792,482
1793,459
1794,451
1795,450
1796,460
1797,462
1798,472
1799,503
1800,534
1801,539
1802,532
1803,512
1804,512
1805,530
1806,544
1807,561
1808,559
1809,561
1810,579
1811,591
1812,591
1813,567
1814,547
1815,529
1816,538
1817,537
1818,523
1819,501
1820,474
1821,470
1822,477
1823,479
1824,478
1825,487
1826,514
1827,534
1828,535
1829,551
1830,561
1831,535
1832,507
1833,469
1834,458
1835,448
1836,447
1837,458
1838,454
1839,475
1840,490
1841,489
1842,487
1843,469
1844,464
1845,472
1846,476
1847,488
1848,490
1849,495
1850,508
1851,505
1852,494
1853,479
1854,492
1855,514
1856,525
1857,539
1858,556
1859,583
1860,605
1861,595
1862,583
1863,572
1864,568
1865,558
1866,545
1867,539
1868,515
1869,497
1870,483
1871,500
1872,518
1873,505
1874,498
1875,497
1876,482
1877,468
1878,457
1879,452
1880,468
1881,498
1882,519
1883,524
1884,536
1885,542
1886,546
1887,531
1888,492
1889,477
1890,470
1891,472
1892,480
1893,482
1894,507
1895,510
1896,506
1897,516
1898,527
1899,530
1900,524
1901,504
1902,511
1903,519
1904,543
1905,567
1906,579
1907,578
1908,556
1909,548
1910,538
1911,518
1912,501
1913,483
1914,483
1915,492
1916,496
1917,503
1918,499
1919,505
1920,525
1921,528
1922,523
1923,514
1924,515
1925,516
1926,508
1927,511
1928,507
1929,510
1930,512
1931,505
1932,511
1933,505
1934,521
1935,540
1936,551
1937,559
1938,540
1939,539
1940,536
1941,534
1942,536
1943,507
1944,499
1945,505
1946,515
1947,523
1948,508
1949,495
1950,480
1951,483
1952,481
1953,472
1954,470
1955,458
1956,470
1957,466
1958,450
1959,450
1960,459
1961,472
1962,479
1963,489
1964,513
1965,524
1966,536
1967,536
1968,521
1969,531
1970,544
1971,554
1972,561
1973,562
1974,568
1975,567
1976,543
1977,527
1978,503
1979,501
1980,503
1981,503
1982,506
1983,502
1984,508
1985,519
1986,525
1987,533
1988,527
1989,535
1990,541
1991,536
1992,536
1993,522
1994,521
1995,527
1996,525
1997,531
1998,533
1999,550
