timestamp,signal
0,402
1,417
2,445
3,477
4,485
5,498
6,505
7,515
8,531
9,533
10,530
11,510
12,498
13,496
14,502
15,515
16,526
17,545
18,561
19,560
20,550
21,525
22,526
23,520
24,505
25,487
26,467
27,464
28,476
29,492
30,507
31,510
32,500
33,493
34,496
35,481
36,451
37,432
38,409
39,400
40,371
41,323
42,331
43,366
44,390
45,412
46,415
47,440
48,476
49,503
50,512
51,511
52,513
53,508
54,487
55,477
56,480
57,469
58,476
59,480
60,484
61,483
62,484
63,485
64,490
65,496
66,482
67,486
68,497
69,502
70,510
71,506
72,532
73,548
74,551
75,552
76,536
77,531
78,531
79,529
80,519
81,488
82,486
83,505
84,543
85,572
86,579
87,583
88,567
89,551
90,528
91,516
92,513
93,510
94,520
95,534
96,520
97,532
98,541
99,538
100,523
101,489
102,479
103,479
104,487
105,501
106,486
107,464
108,443
109,436
110,442
111,451
112,488
113,512
114,537
115,557
116,556
117,556
118,550
119,549
120,563
121,558
122,560
123,565
124,566
125,563
126,539
127,543
128,564
129,584
130,595
131,583
132,571
133,563
134,553
135,553
136,539
137,545
138,544
139,525
140,518
141,499
142,498
143,499
144,490
145,489
146,478
147,481
148,486
149,468
150,460
151,451
152,457
153,468
154,477
155,475
156,472
157,462
158,455
159,466
160,463
161,440
162,419
163,399
164,399
165,390
166,386
167,409
168,446
169,484
170,512
171,527
172,549
173,546
174,539
175,541
176,531
177,520
178,511
179,512
180,523
181,509
182,506
183,500
184,491
185,494
186,490
187,497
188,508
189,522
190,545
191,545
192,563
193,568
194,542
195,521
196,504
197,515
198,525
199,544
200,553
201,538
202,528
203,528
204,536
205,536
206,526
207,521
208,514
209,527
210,516
211,497
212,502
213,499
214,508
215,518
216,501
217,498
218,508
219,520
220,536
221,518
222,508
223,509
224,519
225,527
226,509
227,480
228,446
229,436
230,427
231,423
232,435
233,445
234,458
235,463
236,445
237,438
238,443
239,462
240,490
241,492
242,500
243,513
244,540
245,560
246,553
247,567
248,555
249,546
250,527
251,498
252,496
253,492
254,479
255,477
256,481
257,502
258,512
259,513
260,515
261,502
262,515
263,530
264,533
265,527
266,501
267,502
268,520
269,531
270,532
271,519
272,501
273,492
274,488
275,459
276,414
277,403
278,404
279,421
280,451
281,468
282,480
283,487
284,519
285,551
286,577
287,595
288,583
289,568
290,535
291,497
292,474
293,459
294,461
295,456
296,445
297,451
298,485
299,519
300,534
301,525
302,526
303,529
304,543
305,565
306,569
307,580
308,589
309,593
310,595
311,576
312,574
313,575
314,564
315,547
316,510
317,491
318,471
319,454
320,456
321,460
322,488
323,521
324,528
325,538
326,540
327,551
328,547
329,543
330,544
331,537
332,543
333,550
334,545
335,535
336,524
337,532
338,534
339,531
340,523
341,501
342,499
343,513
344,513
345,508
346,499
347,507
348,517
349,510
350,492
351,471
352,477
353,491
354,504
355,516
356,510
357,515
358,524
359,522
360,529
361,544
362,559
363,577
364,593
365,578
366,556
367,560
368,556
369,546
370,530
371,517
372,528
373,542
374,562
375,560
376,537
377,532
378,538
379,545
380,567
381,589
382,585
383,577
384,576
385,566
386,538
387,520
388,507
389,508
390,523
391,525
392,545
393,565
394,569
395,569
396,547
397,538
398,541
399,553
400,568
401,551
402,531
403,506
404,488
405,488
406,485
407,509
408,523
409,528
410,543
411,551
412,560
413,542
414,518
415,508
416,505
417,518
418,525
419,503
420,486
421,472
422,476
423,483
424,491
425,507
426,518
427,531
428,540
429,547
430,542
431,530
432,525
433,519
434,500
435,491
436,486
437,507
438,527
439,535
440,543
441,531
442,540
443,546
444,538
445,533
446,518
447,520
448,534
449,540
450,544
451,534
452,533
453,528
454,536
455,551
456,542
457,550
458,559
459,561
460,547
461,529
462,541
463,553
464,563
465,565
466,559
467,558
468,548
469,539
470,539
471,527
472,527
473,518
474,490
475,463
476,441
477,447
478,462
479,471
480,481
481,473
482,483
483,499
484,519
485,541
486,538
487,550
488,549
489,543
490,529
491,495
492,485
493,485
494,476
495,468
496,465
497,471
498,476
499,477
500,472
501,464
502,456
503,447
504,455
505,452
506,435
507,426
508,419
509,419
510,421
511,421
512,453
513,484
514,512
515,527
516,518
517,510
518,499
519,499
520,502
521,493
522,496
523,504
524,509
525,504
526,487
527,490
528,508
529,512
530,511
531,505
532,515
533,516
534,527
535,533
536,521
537,524
538,529
539,537
540,539
541,533
542,543
543,549
544,538
545,537
546,532
547,540
548,537
549,524
550,509
551,502
552,527
553,555
554,557
555,555
556,535
557,535
558,544
559,555
560,563
561,543
562,537
563,523
564,504
565,495
566,472
567,470
568,481
569,499
570,521
571,526
572,528
573,511
574,496
575,488
576,471
577,459
578,452
579,463
580,456
581,433
582,423
583,419
584,438
585,447
586,435
587,437
588,452
589,472
590,472
591,451
592,437
593,431
594,444
595,440
596,419
597,422
598,424
599,433
600,442
601,455
602,485
603,504
604,501
605,495
606,483
607,494
608,505
609,510
610,519
611,517
612,523
613,538
614,551
615,563
616,558
617,556
618,566
619,573
620,571
621,561
622,575
623,577
624,573
625,564
626,545
627,529
628,544
629,559
630,578
631,594
632,606
633,599
634,572
635,548
636,536
637,539
638,540
639,529
640,524
641,528
642,550
643,551
644,529
645,501
646,475
647,475
648,483
649,489
650,504
651,497
652,497
653,489
654,480
655,476
656,462
657,462
658,471
659,479
660,491
661,480
662,472
663,476
664,488
665,502
666,492
667,484
668,492
669,495
670,495
671,494
672,497
673,506
674,516
675,500
676,468
677,451
678,436
679,445
680,451
681,442
682,420
683,412
684,419
685,428
686,428
687,434
688,439
689,451
690,472
691,480
692,489
693,504
694,499
695,508
696,499
697,495
698,503
699,512
700,529
701,506
702,508
703,503
704,502
705,503
706,503
707,521
708,544
709,560
710,576
711,576
712,588
713,597
714,590
715,581
716,564
717,559
718,555
719,549
720,537
721,521
722,513
723,507
724,484
725,478
726,476
727,494
728,516
729,511
730,508
731,506
732,507
733,519
734,516
735,495
736,484
737,492
738,492
739,481
740,479
741,472
742,487
743,498
744,519
745,516
746,503
747,497
748,500
749,506
750,519
751,515
752,526
753,535
754,541
755,555
756,550
757,556
758,566
759,574
760,561
761,534
762,526
763,533
764,542
765,532
766,503
767,476
768,467
769,482
770,494
771,491
772,505
773,519
774,527
775,536
776,511
777,507
778,507
779,506
780,501
781,492
782,501
783,490
784,487
785,491
786,466
787,463
788,483
789,500
790,509
791,502
792,512
793,525
794,535
795,542
796,527
797,518
798,524
799,538
800,557
801,548
802,541
803,542
804,543
805,535
806,515
807,505
808,506
809,508
810,486
811,467
812,478
813,495
814,508
815,514
816,518
817,516
818,508
819,515
820,514
821,496
822,485
823,477
824,467
825,478
826,483
827,489
828,497
829,519
830,525
831,515
832,532
833,551
834,554
835,551
836,535
837,528
838,522
839,524
840,536
841,527
842,528
843,531
844,522
845,514
846,494
847,492
848,495
849,484
850,490
851,500
852,516
853,513
854,495
855,492
856,480
857,480
858,487
859,493
860,502
861,491
862,506
863,522
864,530
865,542
866,543
867,548
868,542
869,544
870,548
871,542
872,535
873,525
874,515
875,491
876,467
877,456
878,455
879,470
880,464
881,442
882,424
883,399
884,410
885,425
886,423
887,416
888,425
889,454
890,480
891,486
892,499
893,511
894,513
895,511
896,492
897,484
898,477
899,478
900,488
901,490
902,514
903,532
904,541
905,551
906,545
907,545
908,553
909,558
910,556
911,539
912,540
913,555
914,564
915,563
916,553
917,558
918,554
919,542
920,530
921,516
922,528
923,543
924,541
925,542
926,537
927,543
928,538
929,522
930,506
931,469
932,440
933,424
934,419
935,431
936,444
937,463
938,478
939,488
940,493
941,467
942,471
943,471
944,449
945,435
946,426
947,434
948,445
949,450
950,448
951,438
952,463
953,492
954,516
955,519
956,505
957,503
958,502
959,511
960,525
961,510
962,510
963,526
964,540
965,568
966,569
967,573
968,576
969,566
970,549
971,533
972,525
973,519
974,527
975,530
976,517
977,497
978,482
979,481
980,469
981,439
982,430
983,421
984,447
985,471
986,480
987,505
988,521
989,519
990,524
991,518
992,530
993,549
994,535
995,527
996,514
997,515
998,524
999,527
1000,510
1001,486
1002,475
1003,467
1004,467
1005,477
1006,474
1007,496
1008,515
1009,525
1010,532
1011,523
1012,525
1013,527
1014,526
1015,520
1016,509
1017,519
1018,520
1019,522
1020,529
1021,522
1022,534
1023,544
1024,551
1025,528
1026,485
1027,469
1028,468
1029,474
1030,485
1031,473
1032,457
1033,435
1034,431
1035,444
1036,454
1037,458
1038,472
1039,498
1040,505
1041,508
1042,505
1043,508
1044,528
1045,531
1046,518
1047,515
1048,524
1049,538
1050,547
1051,545
1052,553
1053,555
1054,551
1055,559
1056,569
1057,586
1058,589
1059,585
1060,582
1061,551
1062,542
1063,538
1064,532
1065,544
1066,564
1067,573
1068,568
1069,560
1070,554
1071,547
1072,567
1073,596
1074,603
1075,604
1076,582
1077,572
1078,568
1079,567
1080,571
1081,562
1082,574
1083,580
1084,568
1085,560
1086,550
1087,549
1088,536
1089,524
1090,510
1091,490
1092,494
1093,511
1094,527
1095,543
1096,540
1097,549
1098,562
1099,560
1100,550
1101,528
1102,527
1103,515
1104,499
1105,493
1106,474
1107,476
1108,481
1109,462
1110,454
1111,453
1112,473
1113,488
1114,502
1115,524
1116,518
1117,525
1118,538
1119,555
1120,564
1121,544
1122,536
1123,535
1124,532
1125,523
1126,510
1127,501
1128,488
1129,484
1130,485
1131,456
1132,450
1133,444
1134,449
1135,461
1136,467
1137,484
1138,487
1139,486
1140,487
1141,483
1142,498
1143,505
1144,509
1145,509
1146,492
1147,494
1148,491
1149,499
1150,500
1151,506
1152,530
1153,548
1154,561
1155,568
1156,555
1157,553
1158,546
1159,527
1160,518
1161,508
1162,509
1163,512
1164,514
1165,516
1166,499
1167,504
1168,514
1169,524
1170,503
1171,452
1172,417
1173,404
1174,418
1175,443
1176,460
1177,481
1178,503
1179,527
1180,519
1181,495
1182,483
1183,475
1184,480
1185,478
1186,457
1187,441
1188,426
1189,423
1190,416
1191,415
1192,440
1193,464
1194,481
1195,490
1196,487
1197,486
1198,484
1199,483
1200,480
1201,475
1202,486
1203,500
1204,502
1205,496
1206,489
1207,496
1208,510
1209,524
1210,532
1211,519
1212,512
1213,515
1214,501
1215,484
1216,477
1217,496
1218,517
1219,539
1220,572
1221,583
1222,600
1223,604
1224,593
1225,597
1226,566
1227,563
1228,561
1229,557
1230,559
1231,545
1232,545
1233,544
1234,532
1235,521
1236,515
1237,525
1238,536
1239,537
1240,534
1241,519
1242,521
1243,525
1244,521
1245,515
1246,503
1247,515
1248,528
1249,520
1250,508
1251,486
1252,487
1253,487
1254,491
1255,491
1256,479
1257,489
1258,511
1259,527
1260,541
1261,536
1262,553
1263,563
1264,551
1265,553
1266,552
1267,555
1268,565
1269,573
1270,591
1271,598
1272,615
1273,622
1274,622
1275,615
1276,581
1277,552
1278,527
1279,523
1280,534
1281,525
1282,524
1283,533
1284,551
1285,540
1286,497
1287,461
1288,451
1289,453
1290,455
1291,459
1292,486
1293,506
1294,522
1295,541
1296,540
1297,552
1298,559
1299,559
1300,551
1301,526
1302,527
1303,531
1304,526
1305,512
1306,475
1307,462
1308,461
1309,467
1310,486
1311,499
1312,529
1313,552
1314,557
1315,541
1316,501
1317,481
1318,475
1319,487
1320,505
1321,505
1322,514
1323,519
1324,505
1325,501
1326,489
1327,496
1328,511
1329,507
1330,506
1331,486
1332,453
1333,449
1334,460
1335,468
1336,468
1337,480
1338,498
1339,503
1340,507
1341,493
1342,499
1343,500
1344,497
1345,507
1346,498
1347,478
1348,470
1349,472
1350,479
1351,480
1352,486
1353,476
1354,470
1355,461
1356,448
1357,441
1358,430
1359,440
1360,449
1361,454
1362,462
1363,471
1364,495
1365,515
1366,511
1367,513
1368,511
1369,508
1370,511
1371,486
1372,471
1373,468
1374,468
1375,471
1376,466
1377,486
1378,505
1379,508
1380,524
1381,526
1382,546
1383,570
1384,577
1385,576
1386,553
1387,530
1388,523
1389,514
1390,496
1391,468
1392,471
1393,480
1394,484
1395,504
1396,503
1397,512
1398,523
1399,535
1400,534
1401,496
1402,494
1403,502
1404,517
1405,520
1406,499
1407,497
1408,502
1409,514
1410,504
1411,497
1412,484
1413,483
1414,488
1415,499
1416,499
1417,500
1418,505
1419,521
1420,536
1421,540
1422,543
1423,526
1424,532
1425,523
1426,483
1427,472
1428,474
1429,475
1430,472
1431,463
1432,481
1433,502
1434,519
1435,541
1436,548
1437,555
1438,550
1439,533
1440,527
1441,520
1442,527
1443,527
1444,527
1445,548
1446,559
1447,586
1448,604
1449,604
1450,602
1451,583
1452,580
1453,577
1454,564
1455,550
1456,526
1457,523
1458,532
1459,537
1460,540
1461,525
1462,522
1463,529
1464,534
1465,545
1466,544
1467,557
1468,579
1469,597
1470,580
1471,563
1472,550
1473,540
1474,535
1475,519
1476,485
1477,468
1478,470
1479,486
1480,493
1481,485
1482,479
1483,468
1484,476
1485,483
1486,494
1487,496
1488,499
1489,510
1490,532
1491,507
1492,513
1493,531
1494,539
1495,554
1496,560
1497,561
1498,572
1499,574
1500,561
1501,525
1502,513
1503,511
1504,508
1505,506
1506,482
1507,482
1508,496
1509,504
1510,482
1511,473
1512,485
1513,499
1514,498
1515,508
1516,510
1517,511
1518,486
1519,459
1520,455
1521,444
1522,465
1523,489
1524,500
1525,515
1526,515
1527,533
1528,541
1529,531
1530,532
1531,530
1532,536
1533,550
1534,547
1535,543
1536,530
1537,532
1538,524
1539,507
1540,499
1541,481
1542,482
1543,487
1544,485
1545,488
1546,476
1547,472
1548,481
1549,496
1550,509
1551,524
1552,542
1553,560
1554,563
1555,561
1556,534
1557,514
1558,495
1559,495
1560,509
1561,503
1562,510
1563,532
1564,543
1565,553
1566,550
1567,556
1568,560
1569,543
1570,519
1571,508
1572,516
1573,523
1574,515
1575,497
1576,479
1577,482
1578,492
1579,489
1580,483
1581,460
1582,450
1583,446
1584,450
1585,463
1586,459
1587,454
1588,456
1589,465
1590,477
1591,477
1592,499
1593,514
1594,514
1595,512
1596,494
1597,487
1598,472
1599,464
1600,471
1601,469
1602,480
1603,498
1604,484
1605,479
1606,481
1607,505
1608,515
1609,501
1610,493
1611,482
1612,486
1613,482
1614,469
1615,459
1616,451
1617,471
1618,484
1619,479
1620,493
1621,489
1622,508
1623,529
1624,543
1625,542
1626,536
1627,547
1628,564
1629,567
1630,568
1631,568
1632,581
1633,583
1634,574
1635,553
1636,526
1637,524
1638,535
1639,534
1640,523
1641,505
1642,502
1643,495
1644,495
1645,500
1646,490
1647,501
1648,515
1649,524
1650,526
1651,513
1652,517
1653,525
1654,529
1655,526
1656,517
1657,505
1658,489
1659,497
1660,508
1661,515
1662,521
1663,530
1664,538
1665,524
1666,500
1667,488
1668,479
1669,494
1670,496
1671,488
1672,470
1673,445
1674,431
1675,445
1676,443
1677,459
1678,471
1679,479
1680,495
1681,490
1682,498
1683,519
1684,539
1685,550
1686,547
1687,549
1688,558
1689,547
1690,536
1691,513
1692,504
1693,504
1694,501
1695,506
1696,491
1697,488
1698,487
1699,486
1700,496
1701,491
1702,500
1703,515
1704,498
1705,487
1706,478
1707,472
1708,449
1709,447
1710,449
1711,447
1712,451
1713,460
1714,458
1715,469
1716,474
1717,477
1718,492
1719,503
1720,508
1721,513
1722,533
1723,521
1724,513
1725,525
1726,537
1727,561
1728,575
1729,561
1730,536
1731,508
1732,500
1733,507
1734,509
1735,510
1736,502
1737,511
1738,520
1739,517
1740,516
1741,508
1742,531
1743,547
1744,564
1745,568
1746,542
1747,534
1748,546
1749,548
1750,544
1751,524
1752,519
1753,520
1754,520
1755,528
1756,512
1757,503
1758,489
1759,477
1760,457
1761,431
1762,426
1763,441
1764,465
1765,493
1766,494
1767,511
1768,530
1769,545
1770,553
1771,550
1772,545
1773,536
1774,523
1775,520
1776,518
1777,527
1778,536
1779,523
1780,507
1781,491
1782,497
1783,519
1784,536
1785,536
1786,527
1787,535
1788,534
1789,546
1790,566
1791,576
1792,586
1793,585
1794,587
1795,598
1796,567
1797,526
1798,505
1799,494
1800,470
1801,442
1802,442
1803,457
1804,469
1805,483
1806,472
1807,457
1808,449
1809,450
1810,460
1811,445
1812,449
1813,452
1814,468
1815,470
1816,462
1817,474
1818,482
1819,463
1820,465
1821,470
1822,488
1823,500
1824,507
1825,518
1826,511
1827,515
1828,519
1829,518
1830,524
1831,533
1832,552
1833,563
1834,557
1835,544
1836,529
1837,527
1838,528
1839,527
1840,532
1841,523
1842,518
1843,503
1844,481
1845,478
1846,479
1847,498
1848,495
1849,493
1850,493
1851,475
1852,467
1853,483
1854,475
1855,484
1856,493
1857,511
1858,519
1859,508
1860,493
1861,480
1862,483
1863,491
1864,494
1865,501
1866,503
1867,512
1868,508
1869,512
1870,506
1871,491
1872,490
1873,490
1874,477
1875,463
1876,447
1877,457
1878,456
1879,449
1880,447
1881,429
1882,434
1883,448
1884,463
1885,480
1886,476
1887,485
1888,481
1889,470
1890,473
1891,474
1892,492
1893,514
1894,533
1895,551
1896,543
1897,544
1898,556
1899,564
1900,563
1901,556
1902,558
1903,555
1904,538
1905,526
1906,520
1907,522
1908,525
1909,523
1910,511
1911,487
1912,492
1913,510
1914,505
1915,484
1916,458
1917,462
1918,455
1919,439
1920,434
1921,424
1922,436
1923,455
1924,471
1925,480
1926,473
1927,486
1928,507
1929,516
1930,522
1931,521
1932,539
1933,556
1934,565
1935,574
1936,567
1937,563
1938,547
1939,525
1940,514
1941,506
1942,510
1943,519
1944,532
1945,543
1946,540
1947,533
1948,528
1949,535
1950,555
1951,565
1952,558
1953,552
1954,543
1955,526
1956,505
1957,505
1958,505
1959,502
1960,508
1961,499
1962,497
1963,507
1964,513
1965,525
1966,510
1967,513
1968,522
1969,535
1970,549
1971,531
1972,523
1973,511
1974,493
1975,488
1976,484
1977,491
1978,485
1979,462
1980,455
1981,433
1982,448
1983,466
1984,476
1985,474
1986,450
1987,454
1988,473
1989,482
1990,496
1991,499
1992,512
1993,523
1994,534
1995,530
1996,515
1997,509
1998,507
1999,514
