timestamp,signal
0,522
1,520
2,517
3,510
4,511
5,507
6,513
7,490
8,495
9,516
10,518
11,499
12,496
13,507
14,513
15,519
16,519
17,521
18,539
19,547
20,552
21,537
22,526
23,524
24,533
25,552
26,548
27,539
28,539
29,540
30,547
31,533
32,519
33,521
34,524
35,541
36,552
37,542
38,534
39,528
40,521
41,524
42,526
43,523
44,526
45,522
46,504
47,489
48,481
49,468
50,474
51,467
52,471
53,478
54,469
55,458
56,448
57,441
58,459
59,489
60,511
61,516
62,523
63,538
64,542
65,536
66,535
67,541
68,550
69,542
70,541
71,546
72,556
73,560
74,560
75,555
76,556
77,559
78,551
79,553
80,555
81,556
82,549
83,545
84,545
85,557
86,562
87,562
88,549
89,539
90,545
91,540
92,535
93,532
94,535
95,528
96,511
97,494
98,485
99,495
100,496
101,500
102,499
103,504
104,509
105,513
106,519
107,535
108,543
109,547
110,531
111,528
112,527
113,527
114,532
115,524
116,509
117,493
118,476
119,477
120,483
121,487
122,488
123,491
124,495
125,502
126,506
127,502
128,508
129,518
130,517
131,498
132,500
133,513
134,524
135,525
136,524
137,527
138,529
139,536
140,537
141,548
142,546
143,555
144,557
145,555
146,553
147,554
148,560
149,571
150,560
151,546
152,535
153,531
154,526
155,516
156,502
157,462
158,441
159,435
160,433
161,437
162,454
163,473
164,488
165,512
166,529
167,540
168,537
169,527
170,527
171,531
172,537
173,544
174,544
175,560
176,562
177,562
178,560
179,557
180,547
181,536
182,527
183,509
184,515
185,523
186,535
187,535
188,528
189,523
190,510
191,492
192,474
193,467
194,476
195,475
196,464
197,445
198,438
199,435
200,431
201,439
202,446
203,440
204,440
205,445
206,450
207,456
208,457
209,461
210,486
211,518
212,530
213,521
214,514
215,516
216,526
217,538
218,546
219,550
220,543
221,540
222,545
223,541
224,537
225,527
226,523
227,521
228,511
229,501
230,507
231,515
232,519
233,518
234,510
235,515
236,530
237,527
238,521
239,534
240,560
241,582
242,583
243,572
244,543
245,532
246,529
247,533
248,524
249,500
250,490
251,461
252,430
253,418
254,415
255,415
256,418
257,431
258,445
259,458
260,472
261,477
262,478
263,480
264,476
265,472
266,471
267,479
268,492
269,504
270,494
271,468
272,452
273,463
274,487
275,514
276,522
277,511
278,499
279,499
280,503
281,519
282,525
283,525
284,531
285,523
286,528
287,536
288,544
289,551
290,548
291,538
292,527
293,526
294,527
295,529
296,527
297,513
298,498
299,505
300,512
301,505
302,502
303,502
304,482
305,455
306,446
307,451
308,461
309,480
310,492
311,500
312,512
313,525
314,535
315,541
316,547
317,553
318,529
319,525
320,532
321,535
322,547
323,563
324,574
325,567
326,560
327,560
328,552
329,545
330,513
331,485
332,483
333,491
334,504
335,506
336,500
337,504
338,520
339,534
340,549
341,563
342,570
343,572
344,572
345,550
346,530
347,527
348,523
349,527
350,524
351,509
352,500
353,494
354,492
355,482
356,472
357,473
358,472
359,463
360,457
361,461
362,466
363,462
364,461
365,473
366,479
367,493
368,518
369,545
370,573
371,590
372,593
373,587
374,587
375,594
376,588
377,574
378,565
379,564
380,557
381,550
382,543
383,543
384,537
385,524
386,507
387,495
388,487
389,484
390,479
391,470
392,456
393,450
394,454
395,463
396,479
397,486
398,485
399,483
400,493
401,508
402,515
403,521
404,525
405,516
406,515
407,513
408,517
409,523
410,529
411,531
412,526
413,530
414,529
415,526
416,524
417,528
418,541
419,540
420,551
421,559
422,552
423,547
424,537
425,530
426,532
427,542
428,550
429,553
430,537
431,512
432,492
433,488
434,487
435,483
436,478
437,475
438,465
439,460
440,460
441,458
442,457
443,468
444,482
445,496
446,504
447,508
448,510
449,516
450,512
451,503
452,487
453,472
454,469
455,431
456,418
457,424
458,438
459,451
460,460
461,478
462,479
463,478
464,476
465,491
466,507
467,503
468,504
469,517
470,554
471,572
472,583
473,590
474,589
475,560
476,534
477,526
478,521
479,515
480,516
481,508
482,506
483,503
484,494
485,495
486,483
487,468
488,465
489,468
490,467
491,469
492,458
493,459
494,476
495,486
496,494
497,496
498,498
499,497
500,497
501,499
502,496
503,498
504,500
505,502
506,510
507,503
508,496
509,500
510,495
511,486
512,489
513,491
514,498
515,516
516,532
517,527
518,515
519,499
520,500
521,494
522,494
523,501
524,504
525,519
526,536
527,549
528,551
529,543
530,535
531,525
532,523
533,525
534,529
535,510
536,496
537,482
538,459
539,462
540,471
541,494
542,515
543,521
544,544
545,569
546,581
547,594
548,589
549,571
550,579
551,598
552,605
553,602
554,596
555,597
556,601
557,588
558,587
559,595
560,601
561,596
562,595
563,585
564,562
565,530
566,498
567,467
568,461
569,463
570,470
571,481
572,492
573,484
574,479
575,482
576,473
577,465
578,466
579,467
580,476
581,475
582,493
583,515
584,522
585,518
586,513
587,523
588,529
589,510
590,493
591,473
592,443
593,442
594,436
595,428
596,423
597,418
598,427
599,441
600,448
601,451
602,453
603,455
604,467
605,479
606,505
607,520
608,515
609,512
610,512
611,523
612,531
613,537
614,556
615,555
616,546
617,533
618,527
619,520
620,522
621,502
622,485
623,477
624,474
625,468
626,460
627,443
628,445
629,451
630,455
631,472
632,505
633,517
634,536
635,540
636,544
637,537
638,538
639,544
640,535
641,509
642,472
643,444
644,437
645,435
646,445
647,463
648,485
649,498
650,476
651,466
652,457
653,450
654,435
655,421
656,417
657,435
658,449
659,455
660,466
661,475
662,480
663,480
664,479
665,472
666,471
667,477
668,484
669,484
670,499
671,522
672,536
673,549
674,548
675,550
676,557
677,567
678,562
679,556
680,553
681,551
682,552
683,564
684,584
685,588
686,562
687,531
688,501
689,481
690,475
691,466
692,465
693,476
694,489
695,504
696,504
697,491
698,487
699,485
700,476
701,472
702,463
703,470
704,473
705,476
706,479
707,498
708,526
709,548
710,572
711,578
712,579
713,580
714,581
715,587
716,593
717,592
718,588
719,576
720,556
721,537
722,521
723,521
724,527
725,537
726,542
727,547
728,547
729,546
730,540
731,526
732,500
733,493
734,496
735,495
736,498
737,504
738,511
739,513
740,497
741,492
742,484
743,487
744,504
745,514
746,515
747,516
748,528
749,551
750,543
751,547
752,536
753,516
754,479
755,439
756,421
757,429
758,456
759,484
760,506
761,509
762,517
763,518
764,510
765,474
766,442
767,425
768,416
769,415
770,408
771,414
772,419
773,430
774,459
775,462
776,465
777,471
778,463
779,469
780,452
781,448
782,440
783,427
784,437
785,445
786,463
787,477
788,483
789,485
790,476
791,468
792,460
793,463
794,465
795,470
796,478
797,475
798,465
799,467
800,478
801,478
802,474
803,486
804,501
805,511
806,522
807,525
808,520
809,516
810,507
811,499
812,483
813,466
814,451
815,431
816,418
817,417
818,417
819,425
820,452
821,476
822,456
823,459
824,476
825,496
826,520
827,542
828,558
829,574
830,557
831,544
832,518
833,499
834,496
835,488
836,496
837,516
838,532
839,532
840,525
841,512
842,497
843,491
844,489
845,475
846,467
847,467
848,474
849,494
850,512
851,513
852,508
853,498
854,487
855,496
856,525
857,551
858,561
859,560
860,559
861,568
862,567
863,575
864,574
865,573
866,554
867,520
868,511
869,515
870,518
871,528
872,548
873,561
874,573
875,584
876,592
877,605
878,611
879,594
880,563
881,544
882,543
883,551
884,554
885,559
886,538
887,526
888,533
889,544
890,540
891,524
892,516
893,518
894,511
895,508
896,495
897,462
898,443
899,454
900,459
901,460
902,460
903,468
904,492
905,515
906,532
907,553
908,587
909,615
910,623
911,619
912,600
913,568
914,536
915,512
916,511
917,512
918,512
919,526
920,529
921,535
922,536
923,541
924,553
925,543
926,530
927,524
928,524
929,527
930,510
931,491
932,476
933,465
934,470
935,475
936,490
937,500
938,510
939,519
940,519
941,515
942,508
943,509
944,519
945,528
946,537
947,548
948,559
949,561
950,537
951,518
952,511
953,516
954,524
955,519
956,514
957,517
958,515
959,508
960,514
961,519
962,527
963,551
964,564
965,561
966,559
967,559
968,570
969,579
970,569
971,553
972,549
973,559
974,562
975,568
976,543
977,535
978,540
979,543
980,551
981,555
982,551
983,540
984,521
985,508
986,508
987,503
988,494
989,490
990,507
991,523
992,540
993,556
994,575
995,582
996,564
997,542
998,531
999,529
1000,533
1001,536
1002,525
1003,515
1004,516
1005,540
1006,557
1007,555
1008,549
1009,543
1010,531
1011,528
1012,524
1013,522
1014,513
1015,501
1016,483
1017,476
1018,484
1019,494
1020,502
1021,509
1022,521
1023,527
1024,531
1025,525
1026,517
1027,506
1028,498
1029,492
1030,476
1031,464
1032,446
1033,445
1034,444
1035,445
1036,436
1037,431
1038,432
1039,430
1040,428
1041,423
1042,437
1043,458
1044,476
1045,466
1046,456
1047,451
1048,451
1049,449
1050,451
1051,456
1052,466
1053,475
1054,471
1055,453
1056,435
1057,438
1058,454
1059,471
1060,478
1061,474
1062,465
1063,467
1064,488
1065,488
1066,487
1067,497
1068,506
1069,513
1070,519
1071,515
1072,507
1073,513
1074,519
1075,518
1076,513
1077,512
1078,529
1079,546
1080,534
1081,538
1082,550
1083,543
1084,543
1085,536
1086,521
1087,501
1088,494
1089,486
1090,471
1091,463
1092,474
1093,493
1094,499
1095,484
1096,468
1097,459
1098,452
1099,443
1100,440
1101,455
1102,470
1103,481
1104,481
1105,484
1106,487
1107,492
1108,498
1109,510
1110,497
1111,477
1112,469
1113,473
1114,479
1115,466
1116,448
1117,445
1118,452
1119,468
1120,479
1121,479
1122,475
1123,478
1124,472
1125,448
1126,429
1127,428
1128,433
1129,445
1130,460
1131,471
1132,484
1133,508
1134,532
1135,545
1136,558
1137,551
1138,542
1139,543
1140,540
1141,543
1142,566
1143,574
1144,575
1145,565
1146,551
1147,547
1148,544
1149,535
1150,504
1151,479
1152,465
1153,461
1154,466
1155,442
1156,434
1157,449
1158,469
1159,489
1160,496
1161,504
1162,515
1163,536
1164,552
1165,539
1166,535
1167,535
1168,532
1169,538
1170,535
1171,535
1172,537
1173,553
1174,567
1175,553
1176,546
1177,544
1178,536
1179,519
1180,497
1181,495
1182,492
1183,479
1184,471
1185,469
1186,466
1187,478
1188,494
1189,520
1190,540
1191,552
1192,542
1193,532
1194,528
1195,527
1196,527
1197,531
1198,526
1199,516
1200,518
1201,522
1202,533
1203,542
1204,548
1205,526
1206,514
1207,514
1208,517
1209,520
1210,543
1211,547
1212,555
1213,547
1214,547
1215,537
1216,531
1217,521
1218,529
1219,524
1220,526
1221,531
1222,542
1223,548
1224,550
1225,543
1226,535
1227,525
1228,527
1229,537
1230,544
1231,542
1232,528
1233,511
1234,512
1235,518
1236,528
1237,543
1238,557
1239,567
1240,582
1241,573
1242,559
1243,546
1244,524
1245,521
1246,535
1247,549
1248,557
1249,581
1250,572
1251,561
1252,550
1253,538
1254,514
1255,495
1256,482
1257,474
1258,475
1259,483
1260,491
1261,490
1262,487
1263,486
1264,498
1265,489
1266,487
1267,479
1268,476
1269,488
1270,492
1271,499
1272,508
1273,528
1274,560
1275,568
1276,565
1277,566
1278,583
1279,584
1280,581
1281,579
1282,590
1283,577
1284,561
1285,544
1286,521
1287,494
1288,466
1289,474
1290,494
1291,497
1292,484
1293,489
1294,499
1295,511
1296,511
1297,510
1298,514
1299,514
1300,506
1301,500
1302,492
1303,487
1304,486
1305,485
1306,480
1307,480
1308,492
1309,506
1310,506
1311,492
1312,485
1313,492
1314,508
1315,516
1316,516
1317,507
1318,508
1319,508
1320,504
1321,495
1322,481
1323,466
1324,465
1325,470
1326,480
1327,476
1328,470
1329,478
1330,457
1331,450
1332,464
1333,483
1334,488
1335,489
1336,492
1337,492
1338,490
1339,481
1340,467
1341,451
1342,438
1343,433
1344,434
1345,444
1346,453
1347,450
1348,444
1349,456
1350,459
1351,463
1352,480
1353,507
1354,510
1355,500
1356,495
1357,489
1358,487
1359,479
1360,481
1361,501
1362,523
1363,557
1364,585
1365,597
1366,593
1367,589
1368,594
1369,595
1370,584
1371,559
1372,529
1373,515
1374,521
1375,538
1376,552
1377,561
1378,575
1379,591
1380,601
1381,583
1382,563
1383,544
1384,525
1385,518
1386,512
1387,508
1388,510
1389,520
1390,529
1391,542
1392,551
1393,555
1394,560
1395,558
1396,553
1397,539
1398,524
1399,511
1400,503
1401,511
1402,536
1403,563
1404,582
1405,577
1406,560
1407,530
1408,504
1409,489
1410,481
1411,486
1412,485
1413,489
1414,489
1415,487
1416,492
1417,504
1418,517
1419,513
1420,504
1421,500
1422,504
1423,506
1424,509
1425,507
1426,494
1427,493
1428,499
1429,502
1430,506
1431,518
1432,545
1433,570
1434,574
1435,558
1436,540
1437,531
1438,519
1439,506
1440,510
1441,510
1442,509
1443,512
1444,520
1445,534
1446,532
1447,537
1448,535
1449,538
1450,550
1451,559
1452,566
1453,569
1454,568
1455,561
1456,546
1457,533
1458,515
1459,503
1460,498
1461,493
1462,506
1463,520
1464,533
1465,519
1466,495
1467,473
1468,465
1469,465
1470,457
1471,446
1472,453
1473,467
1474,487
1475,503
1476,508
1477,519
1478,524
1479,538
1480,561
1481,575
1482,566
1483,537
1484,503
1485,475
1486,462
1487,459
1488,459
1489,459
1490,458
1491,462
1492,464
1493,474
1494,476
1495,484
1496,493
1497,515
1498,539
1499,554
1500,550
1501,548
1502,539
1503,536
1504,531
1505,509
1506,489
1507,478
1508,463
1509,458
1510,466
1511,469
1512,475
1513,496
1514,519
1515,523
1516,529
1517,543
1518,563
1519,550
1520,508
1521,478
1522,470
1523,480
1524,496
1525,511
1526,524
1527,533
1528,528
1529,522
1530,509
1531,503
1532,505
1533,513
1534,508
1535,508
1536,515
1537,521
1538,525
1539,532
1540,539
1541,545
1542,547
1543,551
1544,551
1545,544
1546,536
1547,531
1548,520
1549,504
1550,497
1551,500
1552,496
1553,486
1554,467
1555,455
1556,454
1557,454
1558,468
1559,491
1560,499
1561,500
1562,507
1563,508
1564,509
1565,514
1566,518
1567,528
1568,533
1569,527
1570,525
1571,529
1572,539
1573,544
1574,540
1575,529
1576,519
1577,507
1578,498
1579,491
1580,479
1581,476
1582,487
1583,500
1584,513
1585,523
1586,529
1587,527
1588,522
1589,522
1590,513
1591,513
1592,513
1593,520
1594,531
1595,514
1596,491
1597,480
1598,473
1599,473
1600,467
1601,477
1602,491
1603,503
1604,509
1605,496
1606,500
1607,507
1608,516
1609,528
1610,537
1611,535
1612,520
1613,509
1614,503
1615,484
1616,479
1617,483
1618,494
1619,494
1620,473
1621,460
1622,457
1623,460
1624,476
1625,490
1626,490
1627,496
1628,487
1629,478
1630,467
1631,463
1632,472
1633,488
1634,502
1635,503
1636,509
1637,515
1638,517
1639,516
1640,505
1641,489
1642,475
1643,466
1644,463
1645,462
1646,473
1647,483
1648,491
1649,499
1650,503
1651,513
1652,502
1653,494
1654,494
1655,492
1656,489
1657,498
1658,508
1659,501
1660,481
1661,472
1662,463
1663,444
1664,417
1665,406
1666,410
1667,420
1668,435
1669,456
1670,458
1671,472
1672,496
1673,526
1674,547
1675,530
1676,509
1677,512
1678,525
1679,537
1680,534
1681,542
1682,541
1683,547
1684,559
1685,562
1686,556
1687,558
1688,560
1689,562
1690,556
1691,551
1692,547
1693,534
1694,518
1695,505
1696,513
1697,531
1698,547
1699,553
1700,547
1701,536
1702,530
1703,526
1704,513
1705,498
1706,495
1707,493
1708,492
1709,500
1710,526
1711,537
1712,547
1713,549
1714,548
1715,556
1716,551
1717,553
1718,554
1719,544
1720,551
1721,554
1722,555
1723,557
1724,563
1725,536
1726,527
1727,527
1728,535
1729,534
1730,523
1731,527
1732,533
1733,536
1734,533
1735,534
1736,529
1737,523
1738,512
1739,510
1740,515
1741,512
1742,510
1743,531
1744,520
1745,508
1746,484
1747,468
1748,452
1749,433
1750,419
1751,415
1752,417
1753,428
1754,449
1755,470
1756,492
1757,505
1758,486
1759,467
1760,447
1761,447
1762,461
1763,463
1764,466
1765,477
1766,483
1767,494
1768,504
1769,496
1770,484
1771,476
1772,464
1773,465
1774,479
1775,489
1776,500
1777,512
1778,523
1779,529
1780,541
1781,553
1782,540
1783,519
1784,517
1785,509
1786,508
1787,505
1788,508
1789,513
1790,524
1791,523
1792,511
1793,500
1794,498
1795,508
1796,514
1797,513
1798,504
1799,489
1800,474
1801,462
1802,454
1803,453
1804,457
1805,461
1806,457
1807,461
1808,478
1809,493
1810,490
1811,483
1812,489
1813,499
1814,511
1815,509
1816,522
1817,534
1818,539
1819,533
1820,542
1821,544
1822,542
1823,547
1824,558
1825,578
1826,585
1827,580
1828,554
1829,510
1830,507
1831,516
1832,510
1833,500
1834,497
1835,497
1836,496
1837,493
1838,501
1839,516
1840,524
1841,527
1842,532
1843,542
1844,552
1845,544
1846,528
1847,524
1848,523
1849,518
1850,523
1851,530
1852,535
1853,544
1854,549
1855,545
1856,538
1857,545
1858,551
1859,550
1860,547
1861,551
1862,550
1863,547
1864,544
1865,529
1866,509
1867,502
1868,499
1869,502
1870,510
1871,503
1872,504
1873,519
1874,544
1875,566
1876,567
1877,566
1878,566
1879,546
1880,518
1881,489
1882,478
1883,474
1884,475
1885,500
1886,525
1887,545
1888,563
1889,573
1890,579
1891,576
1892,555
1893,530
1894,517
1895,528
1896,556
1897,574
1898,588
1899,601
1900,575
1901,551
1902,531
1903,517
1904,512
1905,502
1906,504
1907,513
1908,520
1909,507
1910,503
1911,486
1912,462
1913,433
1914,414
1915,415
1916,422
1917,427
1918,440
1919,453
1920,458
1921,465
1922,478
1923,498
1924,512
1925,519
1926,507
1927,501
1928,499
1929,501
1930,489
1931,486
1932,492
1933,503
1934,509
1935,511
1936,506
1937,510
1938,512
1939,522
1940,536
1941,529
1942,517
1943,519
1944,522
1945,519
1946,517
1947,522
1948,527
1949,535
1950,536
1951,529
1952,523
1953,517
1954,515
1955,500
1956,486
1957,463
1958,456
1959,468
1960,484
1961,498
1962,514
1963,531
1964,539
1965,546
1966,549
1967,544
1968,525
1969,499
1970,473
1971,482
1972,504
1973,510
1974,515
1975,508
1976,502
1977,503
1978,500
1979,483
1980,454
1981,441
1982,456
1983,471
1984,480
1985,480
1986,479
1987,473
1988,476
1989,488
1990,492
1991,490
1992,490
1993,496
1994,499
1995,503
1996,497
1997,510
1998,523
1999,519
