timestamp,signal
0,503
1,523
2,541
3,543
4,540
5,528
6,517
7,496
8,474
9,478
10,498
11,522
12,538
13,559
14,579
15,592
16,607
17,602
18,576
19,554
20,535
21,534
22,520
23,494
24,475
25,472
26,487
27,506
28,526
29,536
30,530
31,519
32,517
33,534
34,537
35,521
36,512
37,507
38,525
39,541
40,539
41,536
42,531
43,531
44,519
45,498
46,496
47,503
48,511
49,522
50,528
51,518
52,502
53,495
54,492
55,482
56,493
57,505
58,517
59,519
60,506
61,497
62,487
63,478
64,487
65,504
66,526
67,533
68,526
69,511
70,497
71,492
72,485
73,481
74,478
75,470
76,468
77,471
78,471
79,473
80,467
81,476
82,480
83,479
84,483
85,479
86,485
87,492
88,496
89,504
90,509
91,521
92,529
93,522
94,522
95,525
96,530
97,512
98,501
99,494
100,491
101,500
102,508
103,511
104,512
105,512
106,519
107,529
108,543
109,547
110,534
111,522
112,513
113,513
114,513
115,510
116,518
117,523
118,519
119,518
120,510
121,513
122,517
123,522
124,521
125,505
126,479
127,449
128,443
129,439
130,432
131,432
132,443
133,455
134,467
135,478
136,487
137,498
138,508
139,514
140,514
141,538
142,537
143,523
144,506
145,491
146,490
147,501
148,506
149,518
150,518
151,533
152,551
153,558
154,563
155,538
156,515
157,506
158,504
159,510
160,492
161,491
162,509
163,528
164,529
165,520
166,526
167,534
168,533
169,535
170,518
171,520
172,513
173,526
174,526
175,510
176,504
177,504
178,511
179,518
180,512
181,511
182,505
183,511
184,525
185,531
186,544
187,546
188,546
189,538
190,531
191,534
192,542
193,551
194,535
195,504
196,491
197,481
198,479
199,490
200,492
201,484
202,479
203,495
204,521
205,531
206,548
207,558
208,560
209,544
210,524
211,519
212,526
213,508
214,488
215,475
216,483
217,498
218,505
219,512
220,520
221,530
222,526
223,511
224,510
225,513
226,522
227,538
228,538
229,538
230,530
231,524
232,517
233,498
234,489
235,491
236,501
237,515
238,530
239,545
240,561
241,568
242,566
243,561
244,547
245,526
246,508
247,506
248,509
249,503
250,499
251,503
252,516
253,519
254,511
255,495
256,494
257,502
258,499
259,504
260,506
261,523
262,533
263,532
264,527
265,526
266,532
267,523
268,509
269,512
270,518
271,528
272,533
273,526
274,527
275,521
276,513
277,496
278,476
279,478
280,488
281,497
282,500
283,497
284,493
285,497
286,508
287,503
288,481
289,464
290,456
291,469
292,468
293,480
294,477
295,481
296,503
297,534
298,572
299,593
300,592
301,591
302,576
303,551
304,537
305,525
306,527
307,528
308,523
309,519
310,514
311,524
312,534
313,545
314,552
315,541
316,519
317,505
318,494
319,496
320,504
321,500
322,496
323,484
324,470
325,442
326,430
327,432
328,448
329,452
330,443
331,460
332,473
333,488
334,486
335,475
336,468
337,458
338,459
339,481
340,483
341,489
342,486
343,487
344,480
345,477
346,496
347,529
348,551
349,558
350,555
351,553
352,543
353,541
354,535
355,524
356,525
357,527
358,523
359,524
360,514
361,508
362,510
363,510
364,507
365,493
366,489
367,487
368,485
369,480
370,455
371,444
372,448
373,436
374,435
375,435
376,460
377,486
378,483
379,493
380,510
381,527
382,539
383,534
384,534
385,491
386,479
387,481
388,470
389,449
390,430
391,426
392,415
393,416
394,429
395,440
396,469
397,491
398,509
399,533
400,536
401,537
402,529
403,510
404,501
405,489
406,487
407,486
408,480
409,486
410,475
411,472
412,479
413,486
414,500
415,520
416,537
417,550
418,577
419,598
420,592
421,568
422,546
423,547
424,556
425,558
426,555
427,547
428,558
429,559
430,540
431,520
432,515
433,528
434,536
435,536
436,540
437,539
438,529
439,524
440,522
441,521
442,524
443,533
444,540
445,538
446,542
447,537
448,528
449,527
450,523
451,535
452,541
453,539
454,547
455,541
456,521
457,497
458,476
459,473
460,474
461,489
462,500
463,502
464,497
465,496
466,500
467,507
468,504
469,503
470,508
471,519
472,524
473,507
474,495
475,484
476,476
477,482
478,481
479,476
480,475
481,492
482,512
483,519
484,522
485,507
486,484
487,484
488,501
489,507
490,499
491,487
492,488
493,487
494,494
495,498
496,504
497,509
498,506
499,502
500,496
501,505
502,516
503,508
504,508
505,508
506,524
507,519
508,504
509,475
510,458
511,457
512,463
513,466
514,476
515,479
516,483
517,488
518,503
519,522
520,537
521,548
522,552
523,559
524,545
525,525
526,512
527,503
528,509
529,485
530,479
531,471
532,475
533,474
534,479
535,480
536,484
537,491
538,499
539,499
540,489
541,485
542,488
543,502
544,488
545,491
546,506
547,527
548,543
549,536
550,526
551,508
552,492
553,501
554,514
555,529
556,547
557,560
558,569
559,574
560,566
561,558
562,553
563,530
564,515
565,504
566,497
567,499
568,490
569,483
570,478
571,488
572,506
573,513
574,526
575,527
576,536
577,548
578,558
579,554
580,529
581,506
582,488
583,467
584,457
585,462
586,472
587,489
588,484
589,486
590,483
591,485
592,522
593,507
594,489
595,484
596,498
597,500
598,491
599,489
600,481
601,473
602,467
603,478
604,504
605,532
606,561
607,583
608,570
609,557
610,561
611,569
612,574
613,559
614,545
615,524
616,515
617,516
618,510
619,507
620,506
621,509
622,507
623,514
624,529
625,543
626,553
627,561
628,558
629,553
630,544
631,555
632,565
633,580
634,588
635,578
636,566
637,569
638,588
639,595
640,593
641,594
642,591
643,584
644,580
645,560
646,543
647,534
648,526
649,524
650,524
651,526
652,529
653,523
654,517
655,510
656,523
657,533
658,529
659,519
660,510
661,506
662,503
663,503
664,505
665,494
666,499
667,509
668,510
669,523
670,527
671,533
672,533
673,519
674,526
675,522
676,521
677,537
678,541
679,534
680,523
681,522
682,516
683,505
684,507
685,502
686,496
687,488
688,482
689,475
690,463
691,471
692,469
693,477
694,482
695,477
696,480
697,481
698,476
699,463
700,448
701,445
702,449
703,460
704,473
705,480
706,493
707,494
708,490
709,487
710,477
711,482
712,485
713,487
714,494
715,502
716,520
717,542
718,547
719,557
720,553
721,553
722,553
723,540
724,527
725,524
726,521
727,522
728,509
729,504
730,498
731,500
732,501
733,483
734,465
735,445
736,436
737,418
738,416
739,433
740,452
741,464
742,469
743,473
744,468
745,464
746,460
747,472
748,481
749,498
750,479
751,461
752,465
753,478
754,496
755,503
756,513
757,523
758,511
759,501
760,481
761,472
762,477
763,483
764,489
765,481
766,469
767,463
768,462
769,464
770,466
771,482
772,488
773,482
774,477
775,474
776,483
777,495
778,493
779,487
780,503
781,495
782,490
783,480
784,480
785,489
786,506
787,513
788,497
789,480
790,471
791,472
792,480
793,503
794,518
795,520
796,522
797,527
798,528
799,532
800,536
801,540
802,537
803,532
804,515
805,496
806,491
807,496
808,511
809,529
810,517
811,507
812,505
813,504
814,500
815,498
816,512
817,527
818,543
819,551
820,555
821,568
822,558
823,543
824,531
825,523
826,515
827,512
828,501
829,492
830,483
831,481
832,492
833,497
834,508
835,515
836,514
837,519
838,509
839,502
840,499
841,504
842,497
843,486
844,472
845,465
846,486
847,503
848,507
849,522
850,518
851,520
852,520
853,507
854,504
855,499
856,502
857,496
858,483
859,497
860,526
861,542
862,543
863,534
864,527
865,510
866,499
867,498
868,504
869,513
870,524
871,527
872,536
873,557
874,561
875,553
876,536
877,512
878,483
879,479
880,484
881,485
882,497
883,515
884,516
885,503
886,504
887,516
888,516
889,513
890,519
891,539
892,533
893,534
894,533
895,528
896,512
897,515
898,529
899,534
900,523
901,515
902,515
903,514
904,526
905,530
906,533
907,537
908,528
909,519
910,513
911,521
912,531
913,547
914,547
915,537
916,532
917,528
918,523
919,518
920,504
921,499
922,504
923,499
924,489
925,480
926,483
927,489
928,496
929,504
930,519
931,528
932,534
933,534
934,531
935,520
936,512
937,519
938,514
939,515
940,498
941,478
942,472
943,484
944,489
945,483
946,470
947,464
948,454
949,463
950,475
951,495
952,507
953,508
954,485
955,460
956,444
957,448
958,468
959,486
960,493
961,509
962,508
963,485
964,472
965,460
966,441
967,434
968,436
969,436
970,445
971,474
972,489
973,504
974,513
975,517
976,522
977,525
978,512
979,513
980,517
981,523
982,528
983,526
984,531
985,527
986,541
987,551
988,540
989,532
990,532
991,532
992,528
993,515
994,504
995,493
996,481
997,475
998,464
999,468
1000,490
1001,513
1002,528
1003,536
1004,539
1005,518
1006,510
1007,511
1008,511
1009,520
1010,510
1011,513
1012,514
1013,504
1014,489
1015,474
1016,465
1017,457
1018,476
1019,502
1020,524
1021,526
1022,522
1023,529
1024,533
1025,524
1026,533
1027,547
1028,553
1029,546
1030,517
1031,501
1032,472
1033,457
1034,460
1035,468
1036,499
1037,485
1038,473
1039,470
1040,473
1041,478
1042,492
1043,502
1044,499
1045,468
1046,448
1047,447
1048,454
1049,467
1050,468
1051,467
1052,456
1053,463
1054,481
1055,496
1056,515
1057,539
1058,539
1059,533
1060,518
1061,511
1062,502
1063,480
1064,471
1065,471
1066,494
1067,510
1068,534
1069,553
1070,559
1071,550
1072,540
1073,555
1074,558
1075,553
1076,551
1077,554
1078,566
1079,592
1080,584
1081,575
1082,567
1083,565
1084,559
1085,543
1086,534
1087,531
1088,540
1089,534
1090,525
1091,531
1092,542
1093,543
1094,546
1095,538
1096,535
1097,551
1098,556
1099,560
1100,544
1101,535
1102,523
1103,506
1104,508
1105,510
1106,516
1107,524
1108,539
1109,551
1110,553
1111,563
1112,574
1113,582
1114,589
1115,579
1116,566
1117,558
1118,542
1119,527
1120,515
1121,501
1122,493
1123,482
1124,486
1125,513
1126,520
1127,530
1128,532
1129,541
1130,554
1131,563
1132,550
1133,522
1134,519
1135,504
1136,492
1137,490
1138,492
1139,516
1140,505
1141,505
1142,510
1143,518
1144,512
1145,492
1146,485
1147,483
1148,468
1149,470
1150,481
1151,495
1152,504
1153,510
1154,517
1155,523
1156,540
1157,551
1158,547
1159,545
1160,546
1161,550
1162,556
1163,571
1164,587
1165,574
1166,556
1167,547
1168,544
1169,548
1170,539
1171,542
1172,557
1173,546
1174,539
1175,523
1176,519
1177,519
1178,519
1179,534
1180,546
1181,547
1182,521
1183,476
1184,446
1185,436
1186,448
1187,466
1188,454
1189,456
1190,460
1191,475
1192,496
1193,515
1194,531
1195,542
1196,555
1197,570
1198,571
1199,572
1200,574
1201,589
1202,601
1203,603
1204,594
1205,568
1206,553
1207,547
1208,546
1209,545
1210,523
1211,499
1212,491
1213,485
1214,477
1215,464
1216,460
1217,471
1218,486
1219,507
1220,510
1221,516
1222,515
1223,505
1224,507
1225,508
1226,510
1227,516
1228,521
1229,515
1230,506
1231,513
1232,529
1233,530
1234,533
1235,531
1236,513
1237,492
1238,487
1239,478
1240,473
1241,478
1242,491
1243,491
1244,468
1245,448
1246,447
1247,454
1248,436
1249,444
1250,431
1251,419
1252,418
1253,429
1254,448
1255,479
1256,517
1257,553
1258,555
1259,560
1260,546
1261,540
1262,527
1263,516
1264,518
1265,520
1266,525
1267,527
1268,522
1269,524
1270,532
1271,554
1272,573
1273,577
1274,580
1275,568
1276,560
1277,554
1278,531
1279,513
1280,499
1281,498
1282,488
1283,487
1284,485
1285,479
1286,485
1287,492
1288,490
1289,491
1290,491
1291,495
1292,509
1293,505
1294,494
1295,486
1296,491
1297,490
1298,490
1299,493
1300,482
1301,476
1302,475
1303,471
1304,468
1305,469
1306,473
1307,484
1308,498
1309,510
1310,510
1311,504
1312,500
1313,505
1314,511
1315,513
1316,516
1317,511
1318,516
1319,518
1320,523
1321,540
1322,562
1323,579
1324,580
1325,575
1326,572
1327,564
1328,539
1329,516
1330,495
1331,492
1332,497
1333,497
1334,502
1335,500
1336,499
1337,507
1338,516
1339,523
1340,511
1341,508
1342,512
1343,513
1344,516
1345,518
1346,525
1347,518
1348,507
1349,504
1350,510
1351,527
1352,543
1353,538
1354,535
1355,528
1356,527
1357,513
1358,508
1359,492
1360,459
1361,440
1362,434
1363,452
1364,470
1365,468
1366,470
1367,485
1368,530
1369,566
1370,561
1371,548
1372,532
1373,526
1374,530
1375,536
1376,542
1377,542
1378,549
1379,546
1380,544
1381,536
1382,531
1383,517
1384,511
1385,508
1386,519
1387,529
1388,521
1389,498
1390,479
1391,471
1392,460
1393,448
1394,452
1395,463
1396,491
1397,511
1398,512
1399,506
1400,501
1401,501
1402,495
1403,478
1404,463
1405,442
1406,432
1407,419
1408,396
1409,396
1410,380
1411,385
1412,405
1413,416
1414,433
1415,442
1416,443
1417,441
1418,441
1419,458
1420,460
1421,462
1422,472
1423,490
1424,503
1425,513
1426,524
1427,537
1428,534
1429,524
1430,516
1431,509
1432,497
1433,489
1434,484
1435,482
1436,495
1437,521
1438,529
1439,542
1440,519
1441,494
1442,459
1443,435
1444,443
1445,468
1446,488
1447,488
1448,485
1449,480
1450,484
1451,504
1452,520
1453,519
1454,509
1455,487
1456,474
1457,469
1458,467
1459,480
1460,489
1461,502
1462,515
1463,517
1464,516
1465,506
1466,503
1467,501
1468,509
1469,507
1470,503
1471,504
1472,487
1473,480
1474,467
1475,455
1476,451
1477,451
1478,460
1479,465
1480,475
1481,494
1482,515
1483,542
1484,560
1485,556
1486,560
1487,561
1488,549
1489,539
1490,519
1491,513
1492,511
1493,518
1494,535
1495,550
1496,573
1497,581
1498,575
1499,574
1500,556
1501,549
1502,535
1503,518
1504,504
1505,487
1506,489
1507,492
1508,487
1509,489
1510,493
1511,508
1512,518
1513,515
1514,515
1515,515
1516,519
1517,533
1518,565
1519,595
1520,604
1521,592
1522,579
1523,584
1524,583
1525,572
1526,559
1527,553
1528,557
1529,558
1530,551
1531,542
1532,532
1533,496
1534,487
1535,495
1536,507
1537,505
1538,502
1539,495
1540,482
1541,493
1542,507
1543,515
1544,514
1545,488
1546,465
1547,463
1548,461
1549,463
1550,465
1551,474
1552,484
1553,500
1554,534
1555,553
1556,558
1557,564
1558,554
1559,550
1560,552
1561,565
1562,582
1563,586
1564,582
1565,574
1566,567
1567,573
1568,596
1569,620
1570,626
1571,616
1572,605
1573,610
1574,605
1575,595
1576,583
1577,566
1578,560
1579,558
1580,546
1581,536
1582,524
1583,518
1584,515
1585,503
1586,495
1587,503
1588,500
1589,494
1590,482
1591,480
1592,490
1593,498
1594,506
1595,503
1596,503
1597,510
1598,503
1599,496
1600,486
1601,472
1602,472
1603,471
1604,464
1605,459
1606,462
1607,473
1608,485
1609,499
1610,513
1611,521
1612,530
1613,534
1614,543
1615,547
1616,545
1617,539
1618,528
1619,522
1620,505
1621,488
1622,477
1623,496
1624,510
1625,509
1626,512
1627,504
1628,491
1629,473
1630,459
1631,455
1632,467
1633,470
1634,460
1635,444
1636,449
1637,463
1638,457
1639,468
1640,476
1641,487
1642,505
1643,522
1644,533
1645,528
1646,530
1647,526
1648,507
1649,483
1650,458
1651,458
1652,468
1653,470
1654,472
1655,462
1656,470
1657,487
1658,501
1659,512
1660,506
1661,508
1662,507
1663,493
1664,494
1665,504
1666,517
1667,532
1668,526
1669,516
1670,497
1671,495
1672,500
1673,476
1674,463
1675,456
1676,449
1677,439
1678,438
1679,438
1680,438
1681,461
1682,472
1683,488
1684,519
1685,552
1686,572
1687,581
1688,548
1689,535
1690,514
1691,507
1692,506
1693,504
1694,500
1695,482
1696,476
1697,480
1698,484
1699,498
1700,501
1701,508
1702,509
1703,504
1704,487
1705,464
1706,457
1707,456
1708,480
1709,493
1710,501
1711,506
1712,510
1713,526
1714,553
1715,567
1716,570
1717,554
1718,543
1719,525
1720,509
1721,511
1722,516
1723,520
1724,510
1725,487
1726,471
1727,465
1728,468
1729,474
1730,472
1731,474
1732,480
1733,478
1734,489
1735,491
1736,492
1737,480
1738,463
1739,460
1740,465
1741,478
1742,482
1743,475
1744,487
1745,494
1746,491
1747,490
1748,495
1749,505
1750,514
1751,519
1752,518
1753,512
1754,515
1755,510
1756,515
1757,524
1758,519
1759,512
1760,526
1761,532
1762,544
1763,549
1764,560
1765,558
1766,550
1767,548
1768,545
1769,546
1770,546
1771,553
1772,574
1773,578
1774,578
1775,563
1776,564
1777,579
1778,599
1779,605
1780,590
1781,572
1782,545
1783,524
1784,513
1785,507
1786,505
1787,503
1788,506
1789,513
1790,509
1791,502
1792,483
1793,475
1794,472
1795,468
1796,458
1797,447
1798,433
1799,432
1800,435
1801,456
1802,488
1803,515
1804,534
1805,537
1806,529
1807,502
1808,477
1809,463
1810,453
1811,457
1812,467
1813,461
1814,455
1815,448
1816,453
1817,470
1818,483
1819,500
1820,516
1821,518
1822,514
1823,513
1824,512
1825,511
1826,505
1827,493
1828,491
1829,480
1830,469
1831,475
1832,485
1833,504
1834,499
1835,486
1836,475
1837,477
1838,482
1839,495
1840,507
1841,528
1842,534
1843,528
1844,524
1845,511
1846,502
1847,509
1848,521
1849,535
1850,536
1851,532
1852,519
1853,505
1854,505
1855,494
1856,490
1857,496
1858,492
1859,504
1860,522
1861,552
1862,563
1863,546
1864,534
1865,526
1866,517
1867,509
1868,499
1869,509
1870,520
1871,522
1872,523
1873,510
1874,502
1875,491
1876,486
1877,488
1878,490
1879,496
1880,489
1881,485
1882,491
1883,503
1884,519
1885,521
1886,536
1887,534
1888,512
1889,491
1890,478
1891,472
1892,472
1893,477
1894,483
1895,479
1896,485
1897,503
1898,518
1899,543
1900,552
1901,550
1902,539
1903,537
1904,519
1905,493
1906,484
1907,485
1908,500
1909,505
1910,512
1911,529
1912,540
1913,563
1914,564
1915,547
1916,533
1917,520
1918,505
1919,502
1920,491
1921,487
1922,478
1923,465
1924,457
1925,449
1926,461
1927,485
1928,500
1929,523
1930,528
1931,536
1932,546
1933,544
1934,543
1935,533
1936,525
1937,529
1938,526
1939,520
1940,505
1941,496
1942,480
1943,486
1944,496
1945,482
1946,470
1947,479
1948,501
1949,508
1950,501
1951,494
1952,477
1953,476
1954,477
1955,477
1956,476
1957,476
1958,498
1959,516
1960,535
1961,550
1962,559
1963,561
1964,562
1965,566
1966,573
1967,584
1968,586
1969,589
1970,584
1971,567
1972,547
1973,541
1974,542
1975,530
1976,525
1977,535
1978,551
1979,575
1980,588
1981,597
1982,597
1983,586
1984,568
1985,539
1986,534
1987,527
1988,529
1989,558
1990,548
1991,543
1992,539
1993,517
1994,497
1995,487
1996,494
1997,503
1998,492
1999,488
