timestamp,signal
0,469
1,476
2,486
3,483
4,486
5,492
6,492
7,496
8,487
9,484
10,493
11,507
12,494
13,479
14,496
15,527
16,555
17,555
18,527
19,514
20,507
21,507
22,514
23,515
24,534
25,561
26,557
27,547
28,507
29,497
30,498
31,503
32,497
33,483
34,473
35,464
36,467
37,450
38,433
39,430
40,440
41,468
42,486
43,472
44,474
45,497
46,520
47,529
48,529
49,547
50,565
51,572
52,569
53,564
54,577
55,586
56,596
57,586
58,570
59,570
60,579
61,577
62,581
63,576
64,577
65,586
66,598
67,583
68,556
69,554
70,551
71,541
72,530
73,515
74,518
75,526
76,528
77,514
78,501
79,498
80,493
81,492
82,484
83,451
84,416
85,381
86,390
87,430
88,451
89,479
90,504
91,519
92,522
93,512
94,517
95,520
96,504
97,504
98,498
99,499
100,501
101,504
102,487
103,470
104,481
105,503
106,511
107,515
108,498
109,491
110,491
111,492
112,487
113,480
114,479
115,483
116,484
117,488
118,476
119,481
120,480
121,488
122,494
123,482
124,480
125,490
126,496
127,480
128,471
129,461
130,432
131,418
132,408
133,394
134,400
135,412
136,436
137,451
138,453
139,462
140,467
141,467
142,475
143,456
144,471
145,492
146,508
147,515
148,498
149,482
150,462
151,439
152,422
153,406
154,405
155,427
156,445
157,455
158,448
159,454
160,440
161,435
162,439
163,441
164,464
165,492
166,502
167,504
168,517
169,507
170,510
171,519
172,524
173,511
174,510
175,520
176,526
177,522
178,515
179,520
180,537
181,558
182,568
183,551
184,551
185,543
186,528
187,515
188,510
189,527
190,537
191,527
192,530
193,532
194,545
195,543
196,532
197,535
198,541
199,550
200,546
201,527
202,517
203,491
204,488
205,490
206,498
207,503
208,496
209,522
210,529
211,529
212,521
213,497
214,475
215,456
216,452
217,466
218,471
219,481
220,486
221,507
222,519
223,527
224,548
225,576
226,602
227,620
228,616
229,600
230,577
231,575
232,573
233,558
234,539
235,533
236,538
237,539
238,523
239,519
240,518
241,518
242,516
243,514
244,518
245,527
246,520
247,519
248,520
249,533
250,519
251,513
252,504
253,492
254,500
255,502
256,501
257,513
258,522
259,526
260,523
261,527
262,528
263,521
264,534
265,539
266,535
267,540
268,530
269,532
270,540
271,551
272,564
273,561
274,568
275,585
276,592
277,583
278,565
279,556
280,550
281,542
282,534
283,524
284,534
285,546
286,555
287,553
288,535
289,532
290,530
291,538
292,536
293,512
294,507
295,518
296,539
297,537
298,516
299,500
300,492
301,490
302,470
303,450
304,440
305,444
306,472
307,487
308,491
309,492
310,497
311,504
312,497
313,488
314,500
315,523
316,548
317,558
318,551
319,545
320,529
321,500
322,483
323,461
324,467
325,498
326,527
327,528
328,509
329,504
330,513
331,519
332,523
333,527
334,524
335,524
336,511
337,493
338,463
339,451
340,448
341,448
342,467
343,491
344,526
345,550
346,561
347,569
348,569
349,573
350,577
351,564
352,543
353,519
354,504
355,511
356,512
357,509
358,495
359,492
360,498
361,497
362,494
363,476
364,478
365,502
366,536
367,543
368,537
369,536
370,539
371,540
372,526
373,501
374,502
375,502
376,494
377,482
378,460
379,465
380,466
381,481
382,489
383,501
384,510
385,523
386,535
387,547
388,538
389,529
390,527
391,536
392,524
393,490
394,464
395,456
396,464
397,484
398,508
399,537
400,556
401,552
402,540
403,518
404,520
405,503
406,510
407,512
408,502
409,493
410,480
411,470
412,473
413,464
414,476
415,503
416,532
417,529
418,525
419,523
420,524
421,528
422,529
423,512
424,508
425,506
426,512
427,524
428,518
429,523
430,523
431,511
432,512
433,501
434,505
435,508
436,517
437,520
438,519
439,535
440,548
441,554
442,549
443,529
444,514
445,505
446,504
447,508
448,511
449,525
450,541
451,542
452,530
453,513
454,514
455,514
456,523
457,529
458,514
459,511
460,502
461,506
462,512
463,504
464,509
465,509
466,508
467,515
468,515
469,528
470,527
471,522
472,525
473,514
474,507
475,508
476,512
477,510
478,512
479,510
480,507
481,506
482,510
483,521
484,527
485,531
486,533
487,528
488,518
489,522
490,530
491,531
492,538
493,532
494,528
495,535
496,549
497,557
498,556
499,562
500,566
501,566
502,551
503,539
504,541
505,546
506,536
507,519
508,508
509,523
510,539
511,543
512,531
513,512
514,513
515,519
516,533
517,534
518,519
519,527
520,546
521,561
522,569
523,554
524,536
525,513
526,492
527,471
528,443
529,420
530,412
531,411
532,428
533,460
534,499
535,519
536,508
537,505
538,500
539,509
540,517
541,510
542,510
543,505
544,507
545,509
546,518
547,519
548,496
549,500
550,528
551,543
552,546
553,543
554,545
555,551
556,556
557,547
558,518
559,510
560,496
561,471
562,453
563,438
564,440
565,447
566,457
567,476
568,473
569,483
570,493
571,493
572,496
573,487
574,477
575,469
576,466
577,460
578,456
579,463
580,460
581,464
582,472
583,471
584,472
585,460
586,460
587,481
588,496
589,515
590,533
591,547
592,553
593,536
594,532
595,538
596,534
597,517
598,487
599,477
600,465
601,444
602,433
603,420
604,422
605,432
606,449
607,460
608,473
609,488
610,506
611,515
612,529
613,515
614,518
615,521
616,523
617,543
618,559
619,570
620,577
621,556
622,532
623,516
624,525
625,530
626,524
627,534
628,536
629,553
630,570
631,561
632,534
633,492
634,473
635,473
636,480
637,497
638,502
639,520
640,524
641,526
642,520
643,507
644,494
645,480
646,463
647,453
648,440
649,442
650,462
651,477
652,487
653,492
654,502
655,497
656,500
657,507
658,488
659,474
660,473
661,470
662,477
663,473
664,477
665,472
666,477
667,473
668,450
669,441
670,440
671,454
672,451
673,448
674,460
675,476
676,475
677,479
678,484
679,494
680,503
681,496
682,487
683,478
684,484
685,499
686,506
687,505
688,494
689,504
690,517
691,510
692,502
693,478
694,488
695,502
696,513
697,507
698,491
699,496
700,499
701,494
702,488
703,471
704,477
705,490
706,501
707,507
708,492
709,474
710,460
711,457
712,451
713,438
714,441
715,451
716,476
717,486
718,472
719,460
720,455
721,455
722,461
723,460
724,487
725,501
726,503
727,497
728,500
729,520
730,538
731,548
732,559
733,564
734,577
735,587
736,593
737,592
738,567
739,550
740,538
741,532
742,523
743,507
744,502
745,506
746,513
747,504
748,477
749,480
750,504
751,523
752,536
753,524
754,521
755,514
756,511
757,502
758,477
759,463
760,453
761,453
762,462
763,451
764,460
765,491
766,530
767,574
768,566
769,560
770,565
771,555
772,542
773,523
774,521
775,531
776,545
777,550
778,551
779,556
780,566
781,553
782,544
783,540
784,561
785,572
786,575
787,579
788,574
789,585
790,590
791,581
792,563
793,553
794,557
795,551
796,528
797,511
798,492
799,492
800,488
801,484
802,484
803,482
804,496
805,519
806,539
807,538
808,510
809,499
810,497
811,491
812,494
813,500
814,523
815,537
816,538
817,527
818,503
819,497
820,495
821,490
822,489
823,489
824,502
825,518
826,532
827,526
828,512
829,500
830,493
831,500
832,496
833,494
834,492
835,500
836,515
837,521
838,513
839,515
840,507
841,487
842,476
843,456
844,449
845,450
846,444
847,443
848,433
849,451
850,467
851,470
852,466
853,460
854,477
855,493
856,507
857,521
858,516
859,522
860,535
861,552
862,565
863,557
864,557
865,553
866,543
867,535
868,525
869,525
870,519
871,519
872,510
873,483
874,467
875,460
876,462
877,459
878,457
879,450
880,462
881,481
882,505
883,512
884,528
885,561
886,587
887,596
888,590
889,591
890,591
891,592
892,594
893,590
894,592
895,580
896,556
897,542
898,529
899,532
900,543
901,550
902,552
903,528
904,521
905,529
906,534
907,502
908,475
909,466
910,472
911,491
912,507
913,512
914,521
915,536
916,544
917,544
918,533
919,530
920,527
921,520
922,507
923,468
924,447
925,443
926,451
927,439
928,438
929,444
930,466
931,497
932,497
933,483
934,481
935,497
936,510
937,517
938,515
939,526
940,531
941,526
942,523
943,511
944,514
945,515
946,516
947,521
948,507
949,508
950,512
951,520
952,525
953,512
954,515
955,524
956,527
957,524
958,496
959,476
960,463
961,455
962,446
963,430
964,433
965,436
966,432
967,425
968,438
969,471
970,504
971,505
972,518
973,519
974,549
975,575
976,576
977,568
978,546
979,537
980,555
981,540
982,538
983,523
984,529
985,537
986,543
987,544
988,526
989,520
990,517
991,516
992,509
993,481
994,468
995,479
996,493
997,488
998,481
999,493
1000,495
1001,491
1002,478
1003,455
1004,452
1005,476
1006,492
1007,496
1008,482
1009,480
1010,454
1011,452
1012,445
1013,428
1014,423
1015,421
1016,448
1017,482
1018,490
1019,502
1020,516
1021,530
1022,530
1023,526
1024,521
1025,523
1026,540
1027,530
1028,523
1029,512
1030,508
1031,509
1032,514
1033,504
1034,508
1035,521
1036,544
1037,566
1038,558
1039,541
1040,526
1041,533
1042,545
1043,532
1044,524
1045,529
1046,543
1047,533
1048,504
1049,501
1050,526
1051,528
1052,532
1053,523
1054,536
1055,540
1056,545
1057,555
1058,547
1059,546
1060,531
1061,519
1062,508
1063,481
1064,471
1065,477
1066,482
1067,481
1068,477
1069,493
1070,520
1071,544
1072,547
1073,517
1074,499
1075,496
1076,505
1077,499
1078,486
1079,460
1080,447
1081,463
1082,479
1083,483
1084,491
1085,506
1086,524
1087,533
1088,523
1089,505
1090,482
1091,475
1092,494
1093,486
1094,496
1095,505
1096,500
1097,488
1098,467
1099,462
1100,468
1101,477
1102,483
1103,500
1104,524
1105,550
1106,551
1107,522
1108,479
1109,457
1110,448
1111,456
1112,459
1113,452
1114,463
1115,483
1116,506
1117,510
1118,493
1119,496
1120,505
1121,499
1122,496
1123,500
1124,516
1125,529
1126,540
1127,556
1128,580
1129,595
1130,600
1131,592
1132,594
1133,583
1134,577
1135,571
1136,551
1137,542
1138,546
1139,574
1140,581
1141,595
1142,579
1143,545
1144,534
1145,536
1146,537
1147,540
1148,534
1149,543
1150,543
1151,538
1152,524
1153,499
1154,494
1155,502
1156,510
1157,513
1158,502
1159,505
1160,518
1161,519
1162,509
1163,475
1164,461
1165,469
1166,473
1167,458
1168,424
1169,417
1170,436
1171,463
1172,485
1173,492
1174,494
1175,483
1176,488
1177,499
1178,489
1179,477
1180,479
1181,484
1182,501
1183,517
1184,509
1185,494
1186,499
1187,504
1188,493
1189,487
1190,490
1191,492
1192,487
1193,464
1194,462
1195,476
1196,498
1197,503
1198,473
1199,450
1200,438
1201,433
1202,442
1203,444
1204,458
1205,466
1206,455
1207,448
1208,442
1209,452
1210,471
1211,487
1212,498
1213,489
1214,499
1215,514
1216,516
1217,517
1218,524
1219,541
1220,561
1221,580
1222,598
1223,601
1224,617
1225,640
1226,650
1227,658
1228,630
1229,602
1230,591
1231,575
1232,555
1233,516
1234,513
1235,522
1236,532
1237,527
1238,497
1239,487
1240,480
1241,482
1242,483
1243,476
1244,487
1245,507
1246,520
1247,524
1248,521
1249,529
1250,541
1251,556
1252,555
1253,540
1254,540
1255,538
1256,524
1257,504
1258,480
1259,489
1260,490
1261,494
1262,505
1263,523
1264,532
1265,528
1266,514
1267,500
1268,497
1269,508
1270,521
1271,522
1272,523
1273,508
1274,494
1275,489
1276,484
1277,479
1278,459
1279,469
1280,485
1281,486
1282,495
1283,493
1284,502
1285,517
1286,535
1287,545
1288,534
1289,537
1290,549
1291,547
1292,536
1293,515
1294,524
1295,530
1296,531
1297,542
1298,528
1299,518
1300,515
1301,507
1302,500
1303,477
1304,482
1305,481
1306,475
1307,463
1308,450
1309,449
1310,464
1311,482
1312,493
1313,508
1314,528
1315,536
1316,530
1317,527
1318,515
1319,524
1320,531
1321,519
1322,519
1323,528
1324,540
1325,548
1326,536
1327,534
1328,550
1329,576
1330,593
1331,600
1332,598
1333,581
1334,571
1335,555
1336,534
1337,511
1338,487
1339,482
1340,483
1341,495
1342,510
1343,526
1344,554
1345,564
1346,552
1347,544
1348,522
1349,509
1350,515
1351,516
1352,519
1353,509
1354,514
1355,521
1356,511
1357,496
1358,484
1359,487
1360,490
1361,499
1362,492
1363,473
1364,472
1365,492
1366,517
1367,529
1368,528
1369,539
1370,547
1371,547
1372,556
1373,569
1374,593
1375,599
1376,582
1377,568
1378,551
1379,554
1380,539
1381,538
1382,537
1383,537
1384,542
1385,537
1386,523
1387,506
1388,484
1389,471
1390,465
1391,463
1392,459
1393,453
1394,471
1395,491
1396,483
1397,467
1398,435
1399,427
1400,432
1401,447
1402,444
1403,425
1404,436
1405,461
1406,486
1407,478
1408,482
1409,493
1410,512
1411,517
1412,512
1413,502
1414,502
1415,502
1416,486
1417,480
1418,476
1419,483
1420,487
1421,490
1422,488
1423,477
1424,482
1425,502
1426,519
1427,518
1428,495
1429,477
1430,465
1431,463
1432,463
1433,458
1434,467
1435,492
1436,502
1437,492
1438,465
1439,461
1440,476
1441,499
1442,511
1443,503
1444,512
1445,528
1446,527
1447,521
1448,496
1449,490
1450,494
1451,508
1452,526
1453,522
1454,530
1455,543
1456,552
1457,556
1458,541
1459,526
1460,510
1461,472
1462,453
1463,448
1464,468
1465,489
1466,510
1467,536
1468,559
1469,559
1470,543
1471,523
1472,519
1473,531
1474,544
1475,553
1476,548
1477,542
1478,538
1479,550
1480,566
1481,563
1482,556
1483,527
1484,507
1485,500
1486,493
1487,482
1488,472
1489,479
1490,483
1491,485
1492,483
1493,466
1494,472
1495,477
1496,487
1497,509
1498,499
1499,512
1500,525
1501,534
1502,527
1503,513
1504,517
1505,539
1506,534
1507,524
1508,495
1509,504
1510,488
1511,482
1512,468
1513,464
1514,461
1515,476
1516,486
1517,460
1518,423
1519,416
1520,423
1521,425
1522,427
1523,415
1524,430
1525,458
1526,464
1527,475
1528,489
1529,514
1530,534
1531,543
1532,539
1533,527
1534,529
1535,535
1536,556
1537,552
1538,528
1539,513
1540,518
1541,527
1542,536
1543,524
1544,536
1545,560
1546,568
1547,543
1548,509
1549,494
1550,487
1551,489
1552,491
1553,480
1554,492
1555,508
1556,516
1557,518
1558,514
1559,522
1560,539
1561,551
1562,543
1563,521
1564,500
1565,483
1566,475
1567,469
1568,464
1569,468
1570,487
1571,498
1572,508
1573,505
1574,524
1575,521
1576,536
1577,540
1578,535
1579,526
1580,539
1581,551
1582,567
1583,580
1584,606
1585,627
1586,633
1587,620
1588,584
1589,563
1590,543
1591,516
1592,510
1593,510
1594,524
1595,538
1596,543
1597,537
1598,521
1599,515
1600,512
1601,495
1602,487
1603,484
1604,489
1605,499
1606,507
1607,515
1608,521
1609,520
1610,513
1611,502
1612,485
1613,459
1614,452
1615,464
1616,476
1617,482
1618,483
1619,507
1620,536
1621,547
1622,535
1623,510
1624,514
1625,526
1626,519
1627,491
1628,448
1629,427
1630,433
1631,461
1632,478
1633,487
1634,498
1635,511
1636,529
1637,530
1638,515
1639,529
1640,551
1641,565
1642,556
1643,522
1644,512
1645,504
1646,483
1647,476
1648,470
1649,476
1650,482
1651,480
1652,466
1653,428
1654,423
1655,429
1656,436
1657,440
1658,444
1659,441
1660,455
1661,462
1662,483
1663,488
1664,511
1665,533
1666,543
1667,545
1668,557
1669,572
1670,577
1671,566
1672,556
1673,530
1674,521
1675,524
1676,524
1677,532
1678,536
1679,554
1680,570
1681,579
1682,582
1683,579
1684,590
1685,591
1686,592
1687,587
1688,568
1689,552
1690,536
1691,520
1692,505
1693,496
1694,508
1695,522
1696,520
1697,523
1698,501
1699,499
1700,504
1701,515
1702,520
1703,519
1704,514
1705,508
1706,506
1707,498
1708,481
1709,476
1710,491
1711,512
1712,520
1713,503
1714,509
1715,526
1716,543
1717,548
1718,536
1719,532
1720,540
1721,544
1722,543
1723,542
1724,557
1725,555
1726,560
1727,560
1728,543
1729,529
1730,517
1731,517
1732,519
1733,507
1734,515
1735,519
1736,533
1737,536
1738,513
1739,503
1740,496
1741,476
1742,464
1743,467
1744,481
1745,494
1746,508
1747,508
1748,481
1749,465
1750,455
1751,452
1752,442
1753,418
1754,422
1755,430
1756,450
1757,481
1758,502
1759,527
1760,540
1761,543
1762,534
1763,506
1764,491
1765,491
1766,507
1767,517
1768,518
1769,523
1770,527
1771,536
1772,522
1773,496
1774,471
1775,444
1776,415
1777,397
1778,384
1779,403
1780,443
1781,475
1782,499
1783,501
1784,514
1785,526
1786,524
1787,527
1788,511
1789,510
1790,527
1791,546
1792,555
1793,534
1794,515
1795,513
1796,515
1797,509
1798,476
1799,473
1800,477
1801,477
1802,469
1803,454
1804,462
1805,478
1806,485
1807,482
1808,468
1809,470
1810,490
1811,510
1812,518
1813,503
1814,481
1815,478
1816,473
1817,483
1818,481
1819,492
1820,508
1821,524
1822,539
1823,545
1824,547
1825,536
1826,536
1827,534
1828,514
1829,492
1830,476
1831,476
1832,472
1833,462
1834,475
1835,500
1836,533
1837,530
1838,537
1839,558
1840,568
1841,573
1842,572
1843,543
1844,525
1845,529
1846,540
1847,540
1848,548
1849,528
1850,520
1851,516
1852,520
1853,483
1854,482
1855,493
1856,499
1857,496
1858,483
1859,484
1860,486
1861,483
1862,491
1863,497
1864,525
1865,543
1866,553
1867,546
1868,534
1869,534
1870,537
1871,550
1872,546
1873,523
1874,512
1875,517
1876,517
1877,526
1878,531
1879,546
1880,560
1881,574
1882,577
1883,559
1884,545
1885,539
1886,540
1887,531
1888,524
1889,523
1890,514
1891,516
1892,519
1893,508
1894,498
1895,487
1896,483
1897,478
1898,464
1899,456
1900,472
1901,496
1902,511
1903,512
1904,520
1905,525
1906,524
1907,521
1908,496
1909,475
1910,464
1911,462
1912,465
1913,462
1914,480
1915,484
1916,497
1917,503
1918,511
1919,524
1920,539
1921,535
1922,519
1923,489
1924,480
1925,477
1926,495
1927,515
1928,513
1929,516
1930,515
1931,517
1932,517
1933,483
1934,482
1935,489
1936,505
1937,515
1938,510
1939,514
1940,519
1941,525
1942,530
1943,532
1944,543
1945,549
1946,547
1947,529
1948,504
1949,492
1950,490
1951,491
1952,481
1953,460
1954,448
1955,451
1956,460
1957,470
1958,475
1959,482
1960,483
1961,490
1962,495
1963,484
1964,485
1965,491
1966,502
1967,507
1968,497
1969,494
1970,519
1971,513
1972,503
1973,486
1974,494
1975,496
1976,504
1977,509
1978,499
1979,504
1980,515
1981,530
1982,539
1983,545
1984,572
1985,584
1986,580
1987,578
1988,558
1989,551
1990,549
1991,540
1992,524
1993,508
1994,522
1995,527
1996,521
1997,516
1998,503
1999,504
