timestamp,signal
0,558
1,573
2,587
3,574
4,561
5,545
6,542
7,541
8,542
9,539
10,522
11,511
12,504
13,508
14,493
15,487
16,498
17,505
18,508
19,495
20,472
21,481
22,494
23,489
24,497
25,515
26,529
27,541
28,560
29,575
30,554
31,543
32,545
33,564
34,553
35,533
36,521
37,510
38,497
39,477
40,457
41,458
42,466
43,479
44,490
45,504
46,516
47,523
48,523
49,520
50,510
51,506
52,512
53,526
54,544
55,552
56,552
57,561
58,573
59,590
60,591
61,588
62,580
63,579
64,586
65,590
66,593
67,588
68,582
69,561
70,541
71,526
72,514
73,505
74,492
75,488
76,491
77,491
78,492
79,482
80,458
81,455
82,470
83,492
84,504
85,502
86,501
87,513
88,527
89,526
90,518
91,492
92,479
93,466
94,452
95,447
96,449
97,463
98,476
99,479
100,480
101,493
102,496
103,491
104,498
105,509
106,506
107,492
108,488
109,502
110,512
111,519
112,510
113,498
114,495
115,492
116,493
117,511
118,518
119,529
120,545
121,562
122,577
123,589
124,604
125,620
126,623
127,607
128,591
129,563
130,524
131,489
132,462
133,440
134,414
135,393
136,391
137,399
138,433
139,443
140,452
141,453
142,452
143,453
144,446
145,444
146,458
147,474
148,476
149,457
150,451
151,460
152,460
153,462
154,454
155,451
156,464
157,479
158,498
159,492
160,479
161,478
162,480
163,491
164,496
165,502
166,513
167,530
168,541
169,538
170,540
171,545
172,553
173,557
174,552
175,544
176,531
177,517
178,516
179,515
180,508
181,505
182,504
183,512
184,519
185,524
186,532
187,536
188,529
189,515
190,507
191,509
192,516
193,516
194,515
195,521
196,532
197,521
198,506
199,497
200,494
201,495
202,500
203,518
204,530
205,530
206,534
207,546
208,550
209,551
210,551
211,552
212,560
213,561
214,534
215,507
216,492
217,480
218,469
219,494
220,518
221,534
222,545
223,549
224,531
225,504
226,491
227,483
228,471
229,467
230,464
231,459
232,464
233,474
234,480
235,496
236,510
237,540
238,551
239,565
240,576
241,585
242,577
243,571
244,569
245,553
246,537
247,535
248,540
249,549
250,556
251,570
252,579
253,573
254,562
255,560
256,552
257,536
258,525
259,527
260,515
261,515
262,532
263,546
264,538
265,527
266,524
267,528
268,517
269,495
270,477
271,480
272,487
273,487
274,483
275,479
276,491
277,508
278,518
279,512
280,509
281,517
282,515
283,499
284,481
285,472
286,477
287,492
288,503
289,497
290,485
291,476
292,476
293,481
294,483
295,487
296,498
297,511
298,502
299,491
300,482
301,484
302,496
303,507
304,512
305,514
306,535
307,543
308,539
309,525
310,508
311,477
312,472
313,477
314,487
315,492
316,512
317,531
318,543
319,547
320,537
321,524
322,518
323,515
324,514
325,502
326,495
327,488
328,481
329,489
330,484
331,496
332,506
333,514
334,523
335,519
336,519
337,519
338,517
339,522
340,511
341,504
342,496
343,486
344,479
345,472
346,471
347,478
348,484
349,495
350,495
351,499
352,502
353,504
354,502
355,485
356,492
357,476
358,447
359,412
360,387
361,380
362,380
363,406
364,408
365,422
366,442
367,452
368,470
369,495
370,517
371,535
372,536
373,537
374,539
375,531
376,531
377,519
378,495
379,472
380,460
381,454
382,453
383,450
384,450
385,456
386,472
387,486
388,497
389,510
390,504
391,504
392,501
393,507
394,508
395,505
396,513
397,515
398,507
399,500
400,511
401,520
402,524
403,537
404,545
405,538
406,531
407,518
408,517
409,528
410,544
411,550
412,561
413,570
414,567
415,547
416,538
417,530
418,512
419,510
420,514
421,528
422,547
423,552
424,563
425,572
426,583
427,574
428,563
429,569
430,580
431,578
432,562
433,544
434,538
435,537
436,536
437,537
438,535
439,520
440,511
441,513
442,519
443,532
444,536
445,535
446,543
447,527
448,527
449,527
450,519
451,516
452,517
453,514
454,502
455,499
456,513
457,526
458,526
459,511
460,498
461,481
462,483
463,492
464,481
465,474
466,482
467,492
468,498
469,489
470,484
471,489
472,492
473,496
474,508
475,512
476,518
477,536
478,549
479,541
480,527
481,522
482,518
483,517
484,512
485,504
486,503
487,505
488,516
489,522
490,524
491,522
492,526
493,540
494,542
495,539
496,545
497,558
498,566
499,561
500,553
501,550
502,551
503,551
504,533
505,505
506,486
507,480
508,490
509,491
510,485
511,482
512,482
513,481
514,481
515,476
516,480
517,480
518,473
519,460
520,453
521,444
522,462
523,483
524,498
525,504
526,518
527,516
528,512
529,513
530,515
531,519
532,531
533,540
534,549
535,540
536,522
537,526
538,503
539,505
540,516
541,521
542,521
543,524
544,520
545,510
546,501
547,490
548,487
549,506
550,514
551,520
552,530
553,539
554,523
555,502
556,489
557,479
558,480
559,475
560,461
561,465
562,472
563,480
564,481
565,470
566,470
567,475
568,475
569,471
570,444
571,427
572,425
573,440
574,450
575,455
576,465
577,480
578,500
579,511
580,494
581,493
582,491
583,488
584,478
585,477
586,489
587,501
588,504
589,485
590,472
591,467
592,475
593,473
594,475
595,486
596,498
597,510
598,519
599,524
600,528
601,524
602,540
603,551
604,555
605,550
606,543
607,536
608,524
609,498
610,479
611,479
612,489
613,497
614,503
615,495
616,482
617,481
618,491
619,498
620,504
621,516
622,517
623,499
624,493
625,484
626,490
627,496
628,498
629,507
630,519
631,536
632,552
633,560
634,568
635,572
636,575
637,586
638,595
639,600
640,587
641,584
642,593
643,595
644,589
645,581
646,583
647,576
648,572
649,553
650,529
651,511
652,494
653,485
654,474
655,471
656,483
657,511
658,516
659,498
660,484
661,486
662,494
663,496
664,490
665,467
666,445
667,416
668,410
669,417
670,422
671,454
672,479
673,503
674,505
675,497
676,496
677,495
678,498
679,513
680,530
681,544
682,547
683,547
684,535
685,516
686,509
687,509
688,517
689,528
690,530
691,533
692,517
693,492
694,470
695,460
696,466
697,480
698,490
699,480
700,455
701,434
702,436
703,451
704,466
705,474
706,480
707,491
708,525
709,561
710,583
711,582
712,572
713,558
714,553
715,552
716,545
717,538
718,531
719,527
720,534
721,556
722,576
723,587
724,604
725,607
726,586
727,557
728,541
729,555
730,560
731,561
732,550
733,525
734,517
735,526
736,547
737,563
738,571
739,560
740,541
741,540
742,553
743,556
744,546
745,535
746,533
747,536
748,534
749,531
750,510
751,495
752,484
753,472
754,470
755,482
756,498
757,503
758,501
759,487
760,477
761,469
762,468
763,479
764,487
765,495
766,513
767,535
768,543
769,543
770,531
771,527
772,523
773,501
774,492
775,486
776,495
777,502
778,514
779,527
780,518
781,508
782,511
783,521
784,530
785,513
786,491
787,468
788,445
789,424
790,406
791,394
792,390
793,393
794,402
795,420
796,445
797,455
798,456
799,455
800,452
801,457
802,473
803,487
804,491
805,479
806,480
807,473
808,476
809,471
810,462
811,468
812,474
813,487
814,483
815,482
816,493
817,515
818,537
819,535
820,523
821,514
822,511
823,513
824,498
825,482
826,478
827,472
828,459
829,454
830,459
831,473
832,489
833,505
834,523
835,531
836,531
837,527
838,523
839,515
840,506
841,498
842,507
843,518
844,512
845,504
846,500
847,504
848,510
849,501
850,487
851,484
852,502
853,511
854,505
855,493
856,491
857,506
858,522
859,527
860,517
861,516
862,533
863,548
864,548
865,547
866,558
867,552
868,534
869,513
870,512
871,519
872,520
873,522
874,511
875,501
876,500
877,509
878,523
879,536
880,545
881,555
882,559
883,553
884,553
885,545
886,536
887,528
888,532
889,524
890,514
891,505
892,507
893,513
894,511
895,502
896,514
897,533
898,554
899,541
900,522
901,523
902,534
903,534
904,523
905,504
906,491
907,491
908,506
909,503
910,499
911,505
912,503
913,504
914,485
915,467
916,464
917,464
918,467
919,480
920,492
921,504
922,507
923,501
924,488
925,488
926,496
927,517
928,536
929,549
930,539
931,532
932,525
933,521
934,507
935,501
936,513
937,535
938,526
939,528
940,541
941,554
942,565
943,554
944,544
945,523
946,517
947,531
948,534
949,515
950,504
951,512
952,515
953,498
954,480
955,466
956,453
957,455
958,463
959,467
960,469
961,482
962,493
963,491
964,479
965,472
966,477
967,496
968,516
969,539
970,546
971,547
972,558
973,552
974,524
975,487
976,465
977,464
978,466
979,463
980,457
981,464
982,466
983,467
984,461
985,458
986,476
987,497
988,508
989,499
990,488
991,483
992,500
993,520
994,523
995,505
996,495
997,498
998,505
999,493
1000,480
1001,490
1002,498
1003,512
1004,505
1005,500
1006,502
1007,504
1008,515
1009,503
1010,474
1011,465
1012,461
1013,460
1014,456
1015,460
1016,463
1017,480
1018,508
1019,512
1020,501
1021,491
1022,490
1023,503
1024,508
1025,514
1026,531
1027,550
1028,560
1029,565
1030,559
1031,551
1032,545
1033,525
1034,515
1035,523
1036,536
1037,557
1038,564
1039,568
1040,571
1041,564
1042,548
1043,536
1044,545
1045,549
1046,556
1047,559
1048,558
1049,558
1050,549
1051,543
1052,537
1053,520
1054,511
1055,493
1056,482
1057,475
1058,468
1059,463
1060,449
1061,448
1062,455
1063,468
1064,488
1065,506
1066,520
1067,529
1068,541
1069,541
1070,535
1071,529
1072,526
1073,525
1074,515
1075,500
1076,487
1077,468
1078,467
1079,440
1080,411
1081,403
1082,400
1083,387
1084,391
1085,403
1086,431
1087,475
1088,515
1089,522
1090,513
1091,506
1092,508
1093,518
1094,529
1095,532
1096,542
1097,563
1098,583
1099,600
1100,593
1101,569
1102,552
1103,538
1104,525
1105,519
1106,527
1107,543
1108,557
1109,559
1110,547
1111,537
1112,531
1113,522
1114,516
1115,509
1116,516
1117,536
1118,548
1119,562
1120,572
1121,583
1122,585
1123,576
1124,573
1125,558
1126,545
1127,539
1128,536
1129,505
1130,479
1131,483
1132,510
1133,536
1134,568
1135,575
1136,572
1137,561
1138,555
1139,531
1140,511
1141,499
1142,504
1143,502
1144,498
1145,498
1146,512
1147,528
1148,553
1149,565
1150,559
1151,553
1152,560
1153,555
1154,530
1155,506
1156,504
1157,511
1158,518
1159,514
1160,507
1161,510
1162,529
1163,564
1164,583
1165,583
1166,580
1167,578
1168,561
1169,536
1170,500
1171,480
1172,470
1173,461
1174,470
1175,481
1176,500
1177,510
1178,505
1179,516
1180,517
1181,522
1182,526
1183,520
1184,519
1185,521
1186,519
1187,519
1188,512
1189,497
1190,479
1191,471
1192,474
1193,482
1194,487
1195,495
1196,518
1197,545
1198,566
1199,566
1200,550
1201,545
1202,544
1203,543
1204,524
1205,504
1206,499
1207,499
1208,517
1209,521
1210,517
1211,509
1212,491
1213,474
1214,461
1215,456
1216,460
1217,473
1218,473
1219,477
1220,477
1221,470
1222,463
1223,441
1224,427
1225,417
1226,422
1227,444
1228,473
1229,486
1230,483
1231,493
1232,504
1233,518
1234,497
1235,494
1236,509
1237,512
1238,519
1239,521
1240,526
1241,517
1242,512
1243,502
1244,502
1245,497
1246,484
1247,474
1248,468
1249,471
1250,483
1251,490
1252,488
1253,482
1254,470
1255,455
1256,449
1257,453
1258,469
1259,455
1260,455
1261,459
1262,455
1263,455
1264,448
1265,443
1266,443
1267,446
1268,445
1269,444
1270,442
1271,438
1272,440
1273,435
1274,442
1275,443
1276,452
1277,464
1278,475
1279,499
1280,527
1281,549
1282,569
1283,580
1284,596
1285,604
1286,612
1287,613
1288,618
1289,613
1290,595
1291,572
1292,563
1293,558
1294,545
1295,524
1296,521
1297,516
1298,516
1299,508
1300,503
1301,504
1302,514
1303,521
1304,513
1305,500
1306,506
1307,512
1308,521
1309,528
1310,526
1311,528
1312,530
1313,532
1314,527
1315,508
1316,499
1317,509
1318,528
1319,542
1320,521
1321,520
1322,523
1323,528
1324,520
1325,510
1326,507
1327,512
1328,524
1329,511
1330,506
1331,516
1332,532
1333,545
1334,558
1335,569
1336,574
1337,574
1338,584
1339,576
1340,569
1341,576
1342,596
1343,583
1344,567
1345,555
1346,555
1347,547
1348,543
1349,555
1350,558
1351,555
1352,540
1353,521
1354,532
1355,541
1356,545
1357,555
1358,572
1359,577
1360,578
1361,578
1362,578
1363,574
1364,566
1365,546
1366,534
1367,533
1368,544
1369,536
1370,537
1371,555
1372,572
1373,583
1374,585
1375,577
1376,575
1377,571
1378,548
1379,515
1380,494
1381,495
1382,492
1383,487
1384,472
1385,466
1386,470
1387,483
1388,492
1389,500
1390,511
1391,531
1392,546
1393,544
1394,521
1395,503
1396,492
1397,488
1398,494
1399,505
1400,514
1401,524
1402,518
1403,510
1404,521
1405,523
1406,517
1407,505
1408,492
1409,500
1410,496
1411,497
1412,504
1413,508
1414,504
1415,493
1416,486
1417,480
1418,475
1419,481
1420,477
1421,468
1422,461
1423,469
1424,491
1425,511
1426,510
1427,508
1428,528
1429,521
1430,514
1431,513
1432,506
1433,515
1434,514
1435,490
1436,470
1437,455
1438,455
1439,460
1440,460
1441,474
1442,479
1443,480
1444,473
1445,461
1446,457
1447,450
1448,459
1449,465
1450,460
1451,459
1452,456
1453,463
1454,470
1455,468
1456,475
1457,476
1458,485
1459,500
1460,508
1461,512
1462,515
1463,515
1464,491
1465,467
1466,457
1467,456
1468,442
1469,423
1470,425
1471,448
1472,471
1473,494
1474,529
1475,544
1476,550
1477,553
1478,549
1479,554
1480,562
1481,576
1482,590
1483,587
1484,584
1485,585
1486,585
1487,595
1488,585
1489,565
1490,536
1491,528
1492,531
1493,539
1494,558
1495,574
1496,583
1497,577
1498,579
1499,569
1500,558
1501,546
1502,522
1503,486
1504,477
1505,472
1506,474
1507,481
1508,489
1509,486
1510,481
1511,476
1512,463
1513,460
1514,452
1515,439
1516,445
1517,462
1518,478
1519,492
1520,489
1521,505
1522,530
1523,539
1524,515
1525,482
1526,469
1527,467
1528,468
1529,463
1530,448
1531,446
1532,458
1533,467
1534,476
1535,494
1536,508
1537,524
1538,537
1539,540
1540,537
1541,529
1542,522
1543,522
1544,520
1545,511
1546,504
1547,502
1548,510
1549,525
1550,540
1551,548
1552,549
1553,524
1554,501
1555,484
1556,480
1557,483
1558,498
1559,508
1560,513
1561,507
1562,494
1563,478
1564,487
1565,496
1566,505
1567,505
1568,505
1569,502
1570,503
1571,513
1572,538
1573,573
1574,582
1575,572
1576,559
1577,554
1578,541
1579,517
1580,507
1581,503
1582,496
1583,490
1584,486
1585,487
1586,498
1587,508
1588,525
1589,526
1590,504
1591,488
1592,481
1593,498
1594,477
1595,476
1596,496
1597,505
1598,507
1599,512
1600,521
1601,541
1602,562
1603,576
1604,586
1605,602
1606,615
1607,612
1608,600
1609,583
1610,571
1611,551
1612,542
1613,536
1614,512
1615,505
1616,506
1617,500
1618,483
1619,480
1620,479
1621,492
1622,515
1623,539
1624,542
1625,529
1626,522
1627,508
1628,504
1629,504
1630,497
1631,494
1632,492
1633,490
1634,492
1635,462
1636,462
1637,469
1638,478
1639,479
1640,470
1641,471
1642,473
1643,477
1644,483
1645,470
1646,463
1647,464
1648,471
1649,449
1650,441
1651,444
1652,438
1653,436
1654,462
1655,494
1656,518
1657,520
1658,520
1659,521
1660,508
1661,494
1662,467
1663,430
1664,409
1665,400
1666,402
1667,407
1668,414
1669,410
1670,403
1671,405
1672,420
1673,437
1674,437
1675,434
1676,442
1677,458
1678,467
1679,472
1680,463
1681,450
1682,445
1683,455
1684,474
1685,470
1686,478
1687,496
1688,524
1689,540
1690,548
1691,552
1692,551
1693,558
1694,571
1695,588
1696,583
1697,579
1698,565
1699,557
1700,556
1701,558
1702,557
1703,553
1704,548
1705,524
1706,510
1707,507
1708,503
1709,507
1710,512
1711,514
1712,494
1713,482
1714,476
1715,469
1716,477
1717,493
1718,502
1719,504
1720,507
1721,509
1722,517
1723,520
1724,513
1725,503
1726,496
1727,500
1728,510
1729,511
1730,505
1731,509
1732,521
1733,518
1734,488
1735,469
1736,471
1737,490
1738,505
1739,486
1740,466
1741,461
1742,467
1743,485
1744,491
1745,486
1746,495
1747,518
1748,534
1749,521
1750,504
1751,506
1752,511
1753,507
1754,503
1755,502
1756,508
1757,514
1758,510
1759,501
1760,492
1761,489
1762,489
1763,491
1764,493
1765,496
1766,494
1767,493
1768,499
1769,498
1770,499
1771,511
1772,522
1773,530
1774,523
1775,516
1776,535
1777,560
1778,579
1779,591
1780,588
1781,585
1782,579
1783,576
1784,563
1785,547
1786,527
1787,515
1788,514
1789,511
1790,501
1791,500
1792,502
1793,509
1794,508
1795,506
1796,477
1797,473
1798,481
1799,495
1800,480
1801,483
1802,495
1803,513
1804,518
1805,516
1806,516
1807,507
1808,511
1809,499
1810,490
1811,488
1812,492
1813,502
1814,517
1815,510
1816,512
1817,507
1818,507
1819,483
1820,467
1821,460
1822,468
1823,479
1824,480
1825,486
1826,494
1827,502
1828,511
1829,499
1830,487
1831,490
1832,497
1833,499
1834,483
1835,465
1836,471
1837,483
1838,492
1839,511
1840,516
1841,532
1842,548
1843,567
1844,573
1845,559
1846,541
1847,530
1848,522
1849,510
1850,497
1851,500
1852,512
1853,517
1854,510
1855,497
1856,502
1857,518
1858,528
1859,518
1860,503
1861,492
1862,484
1863,488
1864,498
1865,477
1866,475
1867,492
1868,511
1869,508
1870,502
1871,503
1872,501
1873,500
1874,488
1875,477
1876,482
1877,498
1878,524
1879,526
1880,510
1881,497
1882,493
1883,492
1884,499
1885,506
1886,519
1887,528
1888,526
1889,515
1890,507
1891,504
1892,512
1893,528
1894,534
1895,534
1896,539
1897,537
1898,540
1899,537
1900,514
1901,499
1902,498
1903,502
1904,502
1905,500
1906,517
1907,533
1908,541
1909,545
1910,544
1911,551
1912,549
1913,542
1914,538
1915,532
1916,530
1917,531
1918,521
1919,521
1920,526
1921,541
1922,544
1923,536
1924,540
1925,532
1926,525
1927,526
1928,519
1929,507
1930,479
1931,465
1932,458
1933,464
1934,476
1935,494
1936,492
1937,493
1938,500
1939,513
1940,523
1941,527
1942,521
1943,515
1944,504
1945,495
1946,503
1947,513
1948,519
1949,499
1950,487
1951,470
1952,476
1953,490
1954,512
1955,529
1956,542
1957,557
1958,567
1959,560
1960,555
1961,556
1962,559
1963,563
1964,570
1965,572
1966,569
1967,550
1968,520
1969,515
1970,508
1971,511
1972,532
1973,556
1974,567
1975,574
1976,589
1977,593
1978,581
1979,555
1980,529
1981,517
1982,521
1983,526
1984,518
1985,496
1986,488
1987,503
1988,525
1989,524
1990,516
1991,519
1992,532
1993,531
1994,521
1995,513
1996,516
1997,530
1998,540
1999,535
