timestamp,signal
0,517
1,495
2,477
3,467
4,468
5,460
6,458
7,449
8,453
9,430
10,404
11,409
12,430
13,464
14,487
15,498
16,498
17,483
18,474
19,461
20,455
21,461
22,455
23,467
24,489
25,506
26,533
27,541
28,536
29,523
30,499
31,489
32,485
33,500
34,524
35,533
36,536
37,509
38,496
39,492
40,499
41,511
42,498
43,480
44,472
45,487
46,495
47,482
48,472
49,455
50,451
51,437
52,420
53,421
54,439
55,468
56,481
57,488
58,511
59,532
60,542
61,540
62,522
63,529
64,542
65,544
66,549
67,542
68,543
69,543
70,547
71,563
72,565
73,563
74,565
75,574
76,582
77,580
78,581
79,575
80,551
81,538
82,518
83,508
84,502
85,484
86,484
87,481
88,489
89,507
90,504
91,510
92,514
93,516
94,524
95,532
96,545
97,552
98,556
99,567
100,582
101,571
102,554
103,539
104,535
105,551
106,558
107,544
108,539
109,536
110,530
111,526
112,514
113,519
114,537
115,548
116,554
117,542
118,535
119,548
120,535
121,548
122,548
123,546
124,539
125,527
126,518
127,509
128,527
129,540
130,541
131,536
132,521
133,524
134,529
135,543
136,538
137,534
138,540
139,552
140,547
141,556
142,550
143,546
144,541
145,543
146,560
147,548
148,539
149,540
150,537
151,537
152,533
153,536
154,543
155,533
156,527
157,512
158,519
159,534
160,547
161,565
162,561
163,556
164,556
165,547
166,559
167,560
168,574
169,587
170,600
171,572
172,539
173,516
174,515
175,519
176,519
177,526
178,542
179,549
180,533
181,527
182,521
183,514
184,513
185,497
186,476
187,470
188,479
189,481
190,463
191,452
192,442
193,444
194,443
195,423
196,434
197,453
198,486
199,517
200,538
201,546
202,529
203,521
204,513
205,513
206,518
207,519
208,513
209,518
210,529
211,519
212,487
213,476
214,451
215,466
216,484
217,486
218,486
219,483
220,493
221,490
222,470
223,457
224,459
225,475
226,480
227,470
228,476
229,467
230,468
231,484
232,487
233,494
234,502
235,498
236,499
237,488
238,498
239,497
240,491
241,495
242,485
243,481
244,483
245,479
246,477
247,463
248,466
249,478
250,483
251,496
252,493
253,481
254,492
255,504
256,507
257,508
258,519
259,519
260,504
261,481
262,466
263,477
264,494
265,496
266,486
267,475
268,470
269,471
270,467
271,461
272,457
273,465
274,459
275,444
276,438
277,434
278,447
279,463
280,480
281,503
282,513
283,533
284,551
285,553
286,544
287,535
288,525
289,515
290,499
291,476
292,465
293,464
294,476
295,491
296,509
297,510
298,509
299,512
300,524
301,547
302,547
303,555
304,563
305,558
306,562
307,558
308,560
309,562
310,560
311,531
312,512
313,499
314,491
315,479
316,472
317,471
318,472
319,482
320,485
321,486
322,481
323,499
324,522
325,530
326,527
327,513
328,521
329,511
330,517
331,519
332,515
333,510
334,510
335,512
336,526
337,536
338,546
339,543
340,540
341,535
342,531
343,546
344,566
345,570
346,578
347,575
348,579
349,587
350,589
351,583
352,562
353,549
354,536
355,522
356,510
357,504
358,505
359,510
360,514
361,524
362,525
363,530
364,537
365,539
366,547
367,550
368,569
369,572
370,550
371,544
372,528
373,523
374,515
375,511
376,498
377,476
378,455
379,460
380,467
381,472
382,475
383,490
384,492
385,474
386,474
387,483
388,497
389,510
390,530
391,541
392,541
393,528
394,522
395,521
396,495
397,461
398,440
399,432
400,418
401,417
402,423
403,442
404,471
405,508
406,505
407,487
408,463
409,452
410,471
411,487
412,503
413,521
414,519
415,518
416,511
417,505
418,508
419,525
420,531
421,529
422,523
423,533
424,537
425,531
426,532
427,527
428,529
429,531
430,519
431,512
432,495
433,489
434,491
435,501
436,511
437,496
438,503
439,493
440,488
441,486
442,470
443,478
444,475
445,491
446,522
447,544
448,575
449,577
450,569
451,572
452,566
453,562
454,551
455,539
456,543
457,539
458,531
459,521
460,497
461,482
462,454
463,456
464,469
465,463
466,446
467,417
468,418
469,443
470,476
471,494
472,496
473,491
474,487
475,503
476,513
477,519
478,517
479,505
480,508
481,527
482,517
483,510
484,505
485,511
486,497
487,456
488,408
489,377
490,386
491,372
492,342
493,332
494,335
495,360
496,383
497,419
498,471
499,497
500,520
501,529
502,517
503,492
504,481
505,487
506,490
507,488
508,499
509,518
510,518
511,524
512,519
513,521
514,519
515,522
516,538
517,551
518,571
519,600
520,621
521,633
522,626
523,615
524,606
525,591
526,586
527,567
528,556
529,556
530,536
531,517
532,492
533,481
534,488
535,491
536,489
537,473
538,474
539,484
540,476
541,483
542,504
543,524
544,539
545,532
546,522
547,518
548,524
549,515
550,495
551,492
552,500
553,519
554,523
555,537
556,548
557,556
558,561
559,561
560,563
561,580
562,582
563,588
564,587
565,582
566,591
567,579
568,564
569,546
570,531
571,536
572,536
573,531
574,525
575,506
576,517
577,511
578,505
579,499
580,492
581,487
582,472
583,477
584,487
585,483
586,491
587,492
588,512
589,500
590,502
591,511
592,514
593,534
594,527
595,499
596,473
597,461
598,457
599,459
600,472
601,490
602,488
603,479
604,476
605,474
606,484
607,487
608,496
609,508
610,515
611,511
612,500
613,484
614,475
615,483
616,479
617,463
618,467
619,480
620,484
621,507
622,503
623,512
624,523
625,525
626,535
627,518
628,507
629,513
630,526
631,543
632,545
633,546
634,544
635,544
636,542
637,537
638,544
639,546
640,536
641,537
642,536
643,540
644,551
645,533
646,534
647,525
648,521
649,511
650,474
651,458
652,458
653,476
654,496
655,503
656,504
657,489
658,498
659,503
660,492
661,488
662,480
663,492
664,496
665,498
666,505
667,488
668,479
669,468
670,446
671,430
672,426
673,446
674,465
675,483
676,504
677,495
678,492
679,495
680,505
681,512
682,507
683,513
684,522
685,529
686,540
687,547
688,546
689,550
690,563
691,572
692,570
693,557
694,534
695,524
696,523
697,513
698,508
699,501
700,512
701,519
702,509
703,518
704,520
705,527
706,531
707,524
708,524
709,529
710,536
711,540
712,527
713,518
714,494
715,475
716,462
717,448
718,455
719,480
720,500
721,536
722,536
723,524
724,538
725,544
726,541
727,524
728,522
729,521
730,516
731,517
732,505
733,509
734,507
735,489
736,487
737,492
738,516
739,541
740,558
741,556
742,535
743,525
744,527
745,520
746,509
747,515
748,511
749,516
750,516
751,520
752,516
753,503
754,495
755,499
756,502
757,494
758,484
759,468
760,462
761,459
762,452
763,450
764,455
765,465
766,486
767,499
768,521
769,546
770,571
771,582
772,565
773,537
774,523
775,536
776,549
777,542
778,527
779,510
780,515
781,514
782,510
783,499
784,492
785,502
786,506
787,503
788,496
789,487
790,495
791,504
792,504
793,493
794,481
795,482
796,476
797,472
798,481
799,491
800,496
801,494
802,493
803,511
804,496
805,500
806,524
807,518
808,513
809,510
810,492
811,476
812,453
813,438
814,428
815,424
816,428
817,427
818,444
819,454
820,453
821,444
822,424
823,419
824,412
825,414
826,427
827,435
828,457
829,488
830,520
831,553
832,556
833,558
834,560
835,560
836,552
837,528
838,512
839,498
840,479
841,483
842,498
843,512
844,525
845,524
846,527
847,519
848,514
849,501
850,503
851,504
852,503
853,504
854,495
855,488
856,497
857,498
858,496
859,481
860,482
861,478
862,481
863,478
864,493
865,518
866,539
867,538
868,524
869,510
870,496
871,489
872,492
873,508
874,508
875,507
876,487
877,463
878,458
879,464
880,470
881,486
882,488
883,506
884,530
885,542
886,552
887,552
888,550
889,560
890,559
891,561
892,561
893,564
894,540
895,499
896,479
897,465
898,471
899,492
900,506
901,504
902,483
903,465
904,466
905,488
906,506
907,517
908,522
909,515
910,520
911,525
912,535
913,550
914,561
915,574
916,577
917,563
918,545
919,531
920,532
921,545
922,551
923,544
924,533
925,528
926,521
927,523
928,517
929,510
930,513
931,501
932,484
933,476
934,461
935,467
936,467
937,454
938,457
939,462
940,476
941,474
942,473
943,489
944,505
945,528
946,533
947,515
948,502
949,497
950,508
951,530
952,548
953,548
954,545
955,544
956,546
957,548
958,559
959,571
960,563
961,566
962,559
963,552
964,552
965,539
966,527
967,505
968,502
969,509
970,505
971,504
972,484
973,478
974,468
975,468
976,479
977,467
978,471
979,483
980,505
981,534
982,544
983,554
984,549
985,551
986,561
987,540
988,524
989,516
990,511
991,508
992,498
993,489
994,489
995,480
996,488
997,516
998,516
999,516
1000,505
1001,488
1002,485
1003,489
1004,496
1005,502
1006,503
1007,507
1008,514
1009,500
1010,476
1011,442
1012,419
1013,427
1014,451
1015,466
1016,496
1017,513
1018,527
1019,525
1020,514
1021,513
1022,498
1023,503
1024,517
1025,537
1026,543
1027,553
1028,563
1029,566
1030,561
1031,564
1032,551
1033,548
1034,557
1035,561
1036,580
1037,565
1038,572
1039,578
1040,565
1041,548
1042,524
1043,515
1044,515
1045,528
1046,543
1047,552
1048,579
1049,595
1050,589
1051,576
1052,560
1053,559
1054,551
1055,534
1056,526
1057,509
1058,514
1059,534
1060,540
1061,542
1062,530
1063,536
1064,550
1065,555
1066,564
1067,561
1068,557
1069,558
1070,556
1071,547
1072,532
1073,534
1074,537
1075,531
1076,529
1077,548
1078,560
1079,573
1080,556
1081,531
1082,521
1083,510
1084,499
1085,473
1086,453
1087,438
1088,423
1089,421
1090,416
1091,428
1092,444
1093,458
1094,461
1095,441
1096,418
1097,400
1098,418
1099,435
1100,446
1101,447
1102,433
1103,425
1104,429
1105,435
1106,459
1107,469
1108,489
1109,504
1110,510
1111,515
1112,499
1113,502
1114,517
1115,524
1116,546
1117,552
1118,549
1119,546
1120,525
1121,515
1122,503
1123,502
1124,512
1125,519
1126,539
1127,545
1128,541
1129,539
1130,556
1131,553
1132,530
1133,504
1134,494
1135,507
1136,516
1137,504
1138,491
1139,481
1140,484
1141,473
1142,436
1143,416
1144,429
1145,464
1146,499
1147,506
1148,516
1149,517
1150,492
1151,487
1152,489
1153,503
1154,513
1155,512
1156,507
1157,495
1158,496
1159,505
1160,508
1161,515
1162,500
1163,483
1164,475
1165,482
1166,511
1167,531
1168,530
1169,551
1170,566
1171,581
1172,583
1173,575
1174,559
1175,527
1176,515
1177,485
1178,478
1179,486
1180,505
1181,513
1182,511
1183,515
1184,521
1185,531
1186,535
1187,510
1188,482
1189,467
1190,468
1191,462
1192,449
1193,449
1194,451
1195,457
1196,452
1197,444
1198,455
1199,466
1200,475
1201,496
1202,527
1203,564
1204,574
1205,568
1206,567
1207,554
1208,558
1209,557
1210,555
1211,556
1212,556
1213,562
1214,558
1215,545
1216,532
1217,525
1218,531
1219,543
1220,546
1221,534
1222,530
1223,544
1224,556
1225,552
1226,549
1227,550
1228,555
1229,555
1230,541
1231,516
1232,479
1233,464
1234,451
1235,432
1236,424
1237,409
1238,427
1239,451
1240,464
1241,484
1242,479
1243,477
1244,480
1245,478
1246,490
1247,512
1248,528
1249,560
1250,579
1251,577
1252,548
1253,539
1254,532
1255,522
1256,527
1257,525
1258,534
1259,543
1260,551
1261,563
1262,556
1263,532
1264,516
1265,517
1266,527
1267,517
1268,513
1269,489
1270,487
1271,495
1272,507
1273,521
1274,542
1275,568
1276,574
1277,551
1278,535
1279,525
1280,519
1281,517
1282,502
1283,511
1284,518
1285,518
1286,525
1287,519
1288,524
1289,512
1290,500
1291,505
1292,499
1293,494
1294,489
1295,482
1296,492
1297,490
1298,502
1299,492
1300,495
1301,513
1302,515
1303,516
1304,509
1305,482
1306,469
1307,487
1308,496
1309,511
1310,506
1311,507
1312,502
1313,508
1314,517
1315,512
1316,520
1317,514
1318,498
1319,487
1320,496
1321,497
1322,487
1323,493
1324,499
1325,501
1326,496
1327,492
1328,501
1329,517
1330,525
1331,530
1332,512
1333,503
1334,492
1335,485
1336,497
1337,508
1338,537
1339,550
1340,553
1341,564
1342,561
1343,572
1344,575
1345,559
1346,551
1347,540
1348,536
1349,523
1350,531
1351,547
1352,564
1353,568
1354,560
1355,552
1356,555
1357,550
1358,557
1359,556
1360,556
1361,563
1362,568
1363,570
1364,567
1365,567
1366,564
1367,551
1368,531
1369,518
1370,519
1371,512
1372,494
1373,490
1374,492
1375,504
1376,506
1377,501
1378,496
1379,504
1380,511
1381,512
1382,507
1383,508
1384,497
1385,467
1386,449
1387,444
1388,459
1389,482
1390,500
1391,518
1392,514
1393,518
1394,528
1395,515
1396,504
1397,506
1398,525
1399,556
1400,569
1401,571
1402,568
1403,569
1404,577
1405,574
1406,567
1407,546
1408,529
1409,523
1410,519
1411,521
1412,505
1413,491
1414,496
1415,510
1416,525
1417,527
1418,537
1419,551
1420,561
1421,572
1422,563
1423,568
1424,561
1425,526
1426,487
1427,463
1428,451
1429,444
1430,448
1431,436
1432,419
1433,424
1434,456
1435,500
1436,511
1437,504
1438,504
1439,504
1440,498
1441,494
1442,499
1443,524
1444,551
1445,572
1446,586
1447,557
1448,544
1449,541
1450,546
1451,542
1452,536
1453,544
1454,535
1455,524
1456,518
1457,495
1458,487
1459,497
1460,500
1461,507
1462,506
1463,518
1464,529
1465,519
1466,508
1467,509
1468,528
1469,539
1470,537
1471,532
1472,518
1473,519
1474,523
1475,515
1476,510
1477,505
1478,514
1479,516
1480,518
1481,511
1482,493
1483,484
1484,484
1485,490
1486,497
1487,498
1488,516
1489,520
1490,512
1491,520
1492,504
1493,482
1494,460
1495,450
1496,464
1497,478
1498,497
1499,508
1500,515
1501,515
1502,515
1503,501
1504,475
1505,466
1506,452
1507,422
1508,415
1509,413
1510,428
1511,411
1512,381
1513,376
1514,379
1515,365
1516,344
1517,330
1518,335
1519,358
1520,374
1521,407
1522,420
1523,438
1524,462
1525,468
1526,465
1527,449
1528,452
1529,457
1530,459
1531,467
1532,459
1533,458
1534,460
1535,445
1536,452
1537,465
1538,485
1539,499
1540,503
1541,503
1542,487
1543,477
1544,472
1545,451
1546,448
1547,455
1548,469
1549,491
1550,499
1551,508
1552,512
1553,514
1554,505
1555,483
1556,459
1557,451
1558,464
1559,476
1560,495
1561,508
1562,485
1563,494
1564,504
1565,526
1566,545
1567,531
1568,527
1569,530
1570,536
1571,550
1572,551
1573,545
1574,529
1575,507
1576,482
1577,455
1578,441
1579,438
1580,442
1581,465
1582,483
1583,488
1584,489
1585,496
1586,506
1587,513
1588,526
1589,534
1590,554
1591,565
1592,550
1593,525
1594,510
1595,515
1596,496
1597,465
1598,442
1599,421
1600,414
1601,423
1602,409
1603,409
1604,421
1605,433
1606,445
1607,444
1608,460
1609,486
1610,495
1611,513
1612,519
1613,528
1614,529
1615,526
1616,531
1617,522
1618,527
1619,543
1620,548
1621,559
1622,550
1623,553
1624,556
1625,548
1626,560
1627,557
1628,556
1629,559
1630,545
1631,524
1632,500
1633,498
1634,515
1635,512
1636,508
1637,510
1638,528
1639,548
1640,552
1641,534
1642,498
1643,483
1644,488
1645,515
1646,534
1647,533
1648,534
1649,546
1650,553
1651,556
1652,543
1653,534
1654,526
1655,505
1656,495
1657,484
1658,475
1659,464
1660,458
1661,461
1662,449
1663,455
1664,468
1665,481
1666,510
1667,523
1668,532
1669,547
1670,556
1671,561
1672,553
1673,549
1674,546
1675,537
1676,537
1677,533
1678,534
1679,533
1680,522
1681,507
1682,490
1683,491
1684,501
1685,505
1686,510
1687,506
1688,508
1689,516
1690,516
1691,525
1692,539
1693,566
1694,577
1695,562
1696,548
1697,529
1698,521
1699,527
1700,537
1701,544
1702,548
1703,559
1704,563
1705,544
1706,536
1707,541
1708,545
1709,550
1710,533
1711,526
1712,521
1713,518
1714,514
1715,510
1716,514
1717,508
1718,512
1719,521
1720,542
1721,551
1722,548
1723,562
1724,568
1725,568
1726,576
1727,575
1728,593
1729,601
1730,592
1731,582
1732,559
1733,548
1734,548
1735,540
1736,532
1737,519
1738,524
1739,520
1740,527
1741,538
1742,540
1743,532
1744,511
1745,499
1746,484
1747,468
1748,463
1749,449
1750,448
1751,441
1752,438
1753,452
1754,446
1755,438
1756,435
1757,429
1758,449
1759,463
1760,454
1761,452
1762,445
1763,442
1764,459
1765,489
1766,521
1767,525
1768,527
1769,523
1770,508
1771,479
1772,437
1773,419
1774,414
1775,411
1776,426
1777,430
1778,453
1779,487
1780,502
1781,516
1782,510
1783,502
1784,505
1785,522
1786,531
1787,527
1788,521
1789,519
1790,535
1791,549
1792,556
1793,575
1794,592
1795,597
1796,582
1797,544
1798,519
1799,502
1800,498
1801,517
1802,519
1803,517
1804,520
1805,521
1806,528
1807,529
1808,540
1809,552
1810,537
1811,524
1812,500
1813,510
1814,515
1815,511
1816,520
1817,516
1818,519
1819,536
1820,541
1821,533
1822,522
1823,532
1824,550
1825,554
1826,565
1827,560
1828,565
1829,562
1830,521
1831,503
1832,487
1833,483
1834,488
1835,483
1836,487
1837,497
1838,516
1839,541
1840,545
1841,536
1842,539
1843,551
1844,551
1845,559
1846,558
1847,529
1848,522
1849,526
1850,521
1851,518
1852,487
1853,487
1854,496
1855,508
1856,525
1857,521
1858,523
1859,534
1860,543
1861,554
1862,543
1863,543
1864,551
1865,547
1866,548
1867,531
1868,512
1869,503
1870,489
1871,487
1872,489
1873,502
1874,518
1875,534
1876,534
1877,521
1878,515
1879,512
1880,506
1881,510
1882,516
1883,525
1884,524
1885,505
1886,496
1887,490
1888,491
1889,494
1890,472
1891,451
1892,442
1893,448
1894,455
1895,441
1896,437
1897,443
1898,468
1899,487
1900,505
1901,523
1902,525
1903,533
1904,535
1905,523
1906,505
1907,489
1908,490
1909,508
1910,524
1911,543
1912,543
1913,546
1914,552
1915,554
1916,536
1917,496
1918,479
1919,467
1920,461
1921,469
1922,462
1923,467
1924,492
1925,522
1926,551
1927,551
1928,560
1929,564
1930,561
1931,551
1932,526
1933,499
1934,462
1935,448
1936,451
1937,442
1938,450
1939,467
1940,483
1941,500
1942,520
1943,536
1944,560
1945,574
1946,579
1947,564
1948,555
1949,530
1950,506
1951,505
1952,504
1953,524
1954,547
1955,558
1956,563
1957,557
1958,562
1959,559
1960,544
1961,546
1962,530
1963,519
1964,525
1965,534
1966,540
1967,530
1968,519
1969,513
1970,524
1971,525
1972,520
1973,510
1974,495
1975,503
1976,500
1977,485
1978,476
1979,476
1980,481
1981,467
1982,460
1983,453
1984,448
1985,467
1986,468
1987,455
1988,445
1989,444
1990,455
1991,480
1992,499
1993,509
1994,528
1995,552
1996,549
1997,515
1998,492
1999,473
