timestamp,signal
0,516
1,520
2,523
3,507
4,480
5,478
6,488
7,493
8,492
9,489
10,495
11,504
12,504
13,493
14,468
15,443
16,426
17,419
18,409
19,403
20,401
21,415
22,424
23,424
24,435
25,448
26,459
27,471
28,486
29,492
30,489
31,488
32,499
33,520
34,529
35,543
36,544
37,546
38,559
39,575
40,601
41,611
42,605
43,598
44,580
45,569
46,556
47,544
48,521
49,492
50,478
51,480
52,495
53,525
54,549
55,556
56,557
57,547
58,527
59,504
60,496
61,495
62,502
63,507
64,520
65,536
66,554
67,567
68,570
69,568
70,568
71,571
72,565
73,537
74,489
75,460
76,438
77,420
78,413
79,409
80,415
81,426
82,452
83,457
84,480
85,505
86,527
87,559
88,568
89,551
90,528
91,515
92,503
93,480
94,458
95,434
96,421
97,428
98,432
99,434
100,443
101,474
102,509
103,522
104,525
105,523
106,519
107,516
108,513
109,509
110,512
111,512
112,500
113,478
114,454
115,435
116,436
117,458
118,466
119,463
120,468
121,477
122,488
123,492
124,488
125,489
126,492
127,496
128,492
129,479
130,480
131,492
132,507
133,510
134,499
135,484
136,489
137,492
138,492
139,497
140,510
141,529
142,531
143,519
144,505
145,506
146,508
147,511
148,534
149,567
150,591
151,590
152,587
153,575
154,561
155,558
156,550
157,535
158,534
159,532
160,536
161,540
162,536
163,543
164,542
165,529
166,533
167,546
168,563
169,579
170,587
171,586
172,576
173,574
174,569
175,561
176,563
177,562
178,568
179,573
180,568
181,562
182,548
183,519
184,488
185,480
186,482
187,480
188,468
189,459
190,470
191,473
192,467
193,450
194,430
195,428
196,445
197,472
198,485
199,481
200,489
201,505
202,517
203,517
204,507
205,503
206,505
207,524
208,535
209,538
210,541
211,549
212,554
213,554
214,538
215,526
216,512
217,508
218,521
219,537
220,545
221,547
222,551
223,561
224,576
225,581
226,572
227,560
228,540
229,515
230,502
231,503
232,503
233,510
234,499
235,481
236,462
237,467
238,480
239,498
240,516
241,531
242,540
243,536
244,529
245,539
246,555
247,569
248,558
249,533
250,512
251,502
252,495
253,479
254,459
255,447
256,444
257,431
258,429
259,432
260,447
261,464
262,469
263,468
264,468
265,484
266,490
267,475
268,461
269,453
270,460
271,476
272,486
273,477
274,452
275,444
276,440
277,430
278,426
279,415
280,425
281,434
282,443
283,468
284,492
285,519
286,529
287,540
288,554
289,556
290,548
291,531
292,516
293,512
294,508
295,507
296,516
297,510
298,496
299,477
300,472
301,489
302,503
303,501
304,495
305,493
306,495
307,492
308,479
309,467
310,472
311,487
312,496
313,516
314,526
315,537
316,551
317,570
318,568
319,556
320,557
321,565
322,569
323,574
324,568
325,548
326,529
327,515
328,520
329,540
330,569
331,584
332,572
333,556
334,560
335,564
336,572
337,573
338,561
339,545
340,543
341,540
342,531
343,513
344,493
345,491
346,496
347,499
348,493
349,476
350,471
351,473
352,472
353,463
354,451
355,452
356,460
357,476
358,474
359,465
360,472
361,479
362,483
363,488
364,487
365,489
366,489
367,487
368,473
369,461
370,466
371,463
372,469
373,473
374,468
375,463
376,472
377,486
378,498
379,495
380,499
381,511
382,512
383,511
384,519
385,531
386,543
387,555
388,567
389,564
390,551
391,539
392,534
393,537
394,545
395,570
396,556
397,554
398,556
399,555
400,552
401,546
402,529
403,505
404,483
405,485
406,489
407,504
408,512
409,527
410,542
411,552
412,560
413,562
414,537
415,516
416,497
417,495
418,491
419,488
420,502
421,518
422,527
423,524
424,502
425,487
426,492
427,505
428,514
429,507
430,503
431,494
432,499
433,509
434,508
435,507
436,515
437,505
438,504
439,506
440,520
441,534
442,543
443,566
444,579
445,593
446,605
447,608
448,598
449,590
450,584
451,563
452,542
453,520
454,502
455,499
456,495
457,497
458,496
459,499
460,523
461,536
462,531
463,520
464,515
465,528
466,543
467,537
468,514
469,496
470,491
471,473
472,465
473,448
474,446
475,458
476,482
477,508
478,510
479,502
480,499
481,504
482,516
483,510
484,496
485,482
486,481
487,482
488,483
489,482
490,503
491,507
492,518
493,510
494,491
495,483
496,486
497,500
498,507
499,504
500,507
501,510
502,504
503,492
504,478
505,464
506,464
507,454
508,451
509,447
510,435
511,428
512,432
513,428
514,442
515,454
516,452
517,460
518,471
519,465
520,457
521,463
522,476
523,494
524,498
525,520
526,530
527,517
528,523
529,523
530,524
531,527
532,535
533,539
534,528
535,520
536,518
537,515
538,513
539,501
540,505
541,518
542,512
543,500
544,487
545,500
546,519
547,536
548,536
549,517
550,512
551,519
552,534
553,535
554,529
555,532
556,527
557,521
558,525
559,533
560,535
561,534
562,535
563,540
564,544
565,548
566,554
567,553
568,563
569,573
570,586
571,595
572,602
573,601
574,603
575,603
576,584
577,573
578,569
579,564
580,562
581,564
582,563
583,569
584,564
585,567
586,577
587,577
588,571
589,553
590,540
591,527
592,519
593,519
594,509
595,501
596,496
597,499
598,490
599,482
600,487
601,494
602,498
603,514
604,531
605,543
606,543
607,528
608,517
609,511
610,512
611,507
612,505
613,490
614,480
615,485
616,457
617,446
618,435
619,429
620,440
621,467
622,484
623,495
624,487
625,475
626,464
627,458
628,453
629,435
630,427
631,417
632,403
633,393
634,401
635,402
636,418
637,440
638,465
639,482
640,488
641,495
642,493
643,501
644,518
645,539
646,545
647,540
648,541
649,547
650,544
651,536
652,540
653,536
654,523
655,527
656,545
657,558
658,571
659,573
660,577
661,567
662,554
663,533
664,527
665,535
666,548
667,567
668,564
669,533
670,508
671,492
672,493
673,483
674,465
675,465
676,475
677,468
678,452
679,438
680,445
681,451
682,463
683,455
684,440
685,449
686,469
687,494
688,505
689,515
690,525
691,537
692,544
693,542
694,524
695,515
696,509
697,504
698,496
699,486
700,489
701,490
702,489
703,489
704,484
705,489
706,500
707,506
708,492
709,475
710,475
711,483
712,494
713,506
714,496
715,490
716,483
717,482
718,484
719,485
720,487
721,486
722,494
723,483
724,459
725,453
726,457
727,465
728,481
729,494
730,511
731,537
732,556
733,569
734,568
735,564
736,547
737,536
738,519
739,501
740,502
741,506
742,519
743,520
744,503
745,494
746,494
747,504
748,511
749,511
750,528
751,548
752,542
753,539
754,540
755,546
756,550
757,539
758,537
759,519
760,516
761,512
762,505
763,504
764,492
765,484
766,486
767,487
768,479
769,467
770,476
771,501
772,523
773,535
774,530
775,519
776,515
777,516
778,521
779,523
780,525
781,528
782,522
783,523
784,510
785,506
786,503
787,494
788,482
789,475
790,487
791,501
792,510
793,509
794,500
795,497
796,495
797,499
798,488
799,475
800,482
801,498
802,514
803,518
804,514
805,521
806,529
807,544
808,547
809,541
810,541
811,539
812,519
813,508
814,529
815,544
816,561
817,559
818,552
819,550
820,566
821,589
822,608
823,616
824,623
825,630
826,609
827,577
828,536
829,488
830,460
831,447
832,455
833,463
834,467
835,477
836,492
837,509
838,510
839,488
840,473
841,468
842,454
843,435
844,424
845,440
846,454
847,477
848,485
849,469
850,473
851,468
852,484
853,496
854,502
855,510
856,529
857,536
858,534
859,536
860,545
861,560
862,563
863,548
864,531
865,523
866,514
867,495
868,489
869,493
870,514
871,545
872,567
873,581
874,583
875,578
876,583
877,590
878,594
879,590
880,594
881,604
882,609
883,615
884,620
885,617
886,605
887,591
888,582
889,573
890,560
891,543
892,523
893,514
894,507
895,511
896,522
897,521
898,521
899,524
900,520
901,513
902,501
903,488
904,480
905,487
906,496
907,503
908,504
909,505
910,508
911,524
912,516
913,516
914,517
915,509
916,507
917,515
918,525
919,522
920,521
921,516
922,510
923,502
924,496
925,496
926,507
927,523
928,508
929,475
930,448
931,432
932,426
933,417
934,402
935,390
936,401
937,428
938,446
939,445
940,448
941,463
942,479
943,496
944,504
945,521
946,520
947,515
948,503
949,481
950,455
951,446
952,447
953,436
954,418
955,420
956,431
957,457
958,479
959,473
960,476
961,494
962,505
963,503
964,483
965,465
966,447
967,445
968,453
969,460
970,460
971,445
972,446
973,447
974,442
975,453
976,479
977,498
978,505
979,497
980,492
981,484
982,485
983,490
984,477
985,488
986,496
987,505
988,527
989,530
990,511
991,495
992,496
993,499
994,493
995,495
996,499
997,497
998,491
999,489
1000,502
1001,516
1002,526
1003,529
1004,513
1005,491
1006,489
1007,503
1008,510
1009,497
1010,504
1011,521
1012,533
1013,542
1014,528
1015,515
1016,507
1017,511
1018,511
1019,501
1020,498
1021,507
1022,508
1023,502
1024,491
1025,505
1026,531
1027,555
1028,539
1029,523
1030,519
1031,522
1032,531
1033,529
1034,529
1035,539
1036,543
1037,541
1038,527
1039,515
1040,513
1041,516
1042,519
1043,508
1044,493
1045,475
1046,459
1047,455
1048,487
1049,490
1050,493
1051,487
1052,491
1053,513
1054,523
1055,539
1056,558
1057,576
1058,572
1059,559
1060,540
1061,537
1062,542
1063,540
1064,555
1065,568
1066,572
1067,555
1068,551
1069,547
1070,549
1071,552
1072,541
1073,549
1074,557
1075,562
1076,566
1077,563
1078,574
1079,573
1080,577
1081,580
1082,579
1083,563
1084,541
1085,536
1086,533
1087,532
1088,519
1089,497
1090,491
1091,491
1092,492
1093,473
1094,458
1095,462
1096,460
1097,470
1098,481
1099,486
1100,484
1101,486
1102,498
1103,510
1104,510
1105,518
1106,534
1107,539
1108,542
1109,535
1110,533
1111,530
1112,533
1113,536
1114,527
1115,505
1116,493
1117,505
1118,518
1119,517
1120,523
1121,536
1122,525
1123,516
1124,504
1125,494
1126,504
1127,511
1128,514
1129,515
1130,527
1131,537
1132,542
1133,545
1134,547
1135,551
1136,549
1137,550
1138,541
1139,531
1140,521
1141,516
1142,526
1143,519
1144,507
1145,512
1146,516
1147,522
1148,527
1149,527
1150,523
1151,519
1152,518
1153,517
1154,519
1155,524
1156,524
1157,524
1158,519
1159,503
1160,504
1161,519
1162,522
1163,511
1164,496
1165,501
1166,517
1167,538
1168,550
1169,538
1170,515
1171,486
1172,463
1173,450
1174,442
1175,451
1176,465
1177,473
1178,477
1179,473
1180,465
1181,457
1182,443
1183,420
1184,413
1185,425
1186,442
1187,461
1188,472
1189,469
1190,472
1191,477
1192,507
1193,524
1194,519
1195,512
1196,499
1197,490
1198,487
1199,480
1200,488
1201,503
1202,501
1203,495
1204,487
1205,473
1206,476
1207,498
1208,521
1209,524
1210,525
1211,512
1212,497
1213,488
1214,481
1215,485
1216,493
1217,491
1218,489
1219,479
1220,473
1221,478
1222,491
1223,492
1224,478
1225,468
1226,459
1227,445
1228,438
1229,433
1230,443
1231,463
1232,472
1233,475
1234,465
1235,457
1236,461
1237,479
1238,494
1239,501
1240,511
1241,514
1242,521
1243,521
1244,507
1245,507
1246,509
1247,519
1248,521
1249,517
1250,519
1251,517
1252,526
1253,536
1254,535
1255,531
1256,530
1257,527
1258,530
1259,532
1260,532
1261,533
1262,543
1263,552
1264,569
1265,573
1266,585
1267,589
1268,592
1269,585
1270,568
1271,542
1272,531
1273,526
1274,513
1275,497
1276,494
1277,479
1278,473
1279,469
1280,470
1281,473
1282,495
1283,468
1284,452
1285,444
1286,436
1287,427
1288,436
1289,441
1290,470
1291,497
1292,513
1293,509
1294,503
1295,504
1296,520
1297,532
1298,516
1299,504
1300,509
1301,524
1302,543
1303,553
1304,548
1305,540
1306,543
1307,547
1308,539
1309,521
1310,505
1311,477
1312,455
1313,453
1314,448
1315,455
1316,456
1317,462
1318,463
1319,467
1320,478
1321,483
1322,488
1323,495
1324,497
1325,506
1326,513
1327,515
1328,522
1329,536
1330,545
1331,538
1332,535
1333,531
1334,502
1335,491
1336,494
1337,505
1338,515
1339,512
1340,505
1341,487
1342,475
1343,471
1344,463
1345,461
1346,457
1347,448
1348,457
1349,474
1350,499
1351,519
1352,545
1353,564
1354,567
1355,554
1356,549
1357,532
1358,524
1359,511
1360,492
1361,475
1362,465
1363,465
1364,462
1365,462
1366,470
1367,479
1368,489
1369,496
1370,500
1371,507
1372,527
1373,535
1374,514
1375,511
1376,511
1377,512
1378,509
1379,502
1380,514
1381,528
1382,536
1383,537
1384,531
1385,540
1386,553
1387,564
1388,556
1389,524
1390,515
1391,509
1392,505
1393,495
1394,488
1395,491
1396,493
1397,500
1398,494
1399,488
1400,491
1401,498
1402,513
1403,527
1404,534
1405,531
1406,539
1407,543
1408,550
1409,551
1410,548
1411,540
1412,535
1413,534
1414,533
1415,543
1416,548
1417,560
1418,565
1419,555
1420,545
1421,530
1422,540
1423,528
1424,524
1425,519
1426,516
1427,506
1428,487
1429,469
1430,467
1431,467
1432,468
1433,459
1434,441
1435,440
1436,461
1437,468
1438,470
1439,474
1440,486
1441,509
1442,529
1443,513
1444,501
1445,507
1446,515
1447,524
1448,525
1449,512
1450,497
1451,489
1452,487
1453,491
1454,502
1455,515
1456,531
1457,544
1458,554
1459,563
1460,565
1461,561
1462,529
1463,496
1464,490
1465,507
1466,521
1467,533
1468,550
1469,560
1470,568
1471,579
1472,579
1473,559
1474,530
1475,510
1476,493
1477,492
1478,475
1479,466
1480,474
1481,491
1482,496
1483,481
1484,473
1485,476
1486,471
1487,476
1488,475
1489,460
1490,455
1491,462
1492,461
1493,468
1494,482
1495,492
1496,500
1497,492
1498,483
1499,472
1500,474
1501,498
1502,526
1503,530
1504,525
1505,535
1506,546
1507,537
1508,531
1509,534
1510,543
1511,544
1512,537
1513,539
1514,533
1515,533
1516,534
1517,538
1518,530
1519,504
1520,495
1521,498
1522,494
1523,514
1524,508
1525,519
1526,536
1527,548
1528,551
1529,559
1530,572
1531,577
1532,563
1533,544
1534,521
1535,514
1536,518
1537,522
1538,530
1539,547
1540,564
1541,547
1542,534
1543,513
1544,502
1545,504
1546,514
1547,533
1548,552
1549,550
1550,536
1551,505
1552,479
1553,451
1554,425
1555,411
1556,421
1557,419
1558,448
1559,481
1560,515
1561,537
1562,552
1563,564
1564,559
1565,553
1566,551
1567,556
1568,548
1569,530
1570,525
1571,534
1572,537
1573,528
1574,515
1575,509
1576,497
1577,490
1578,483
1579,477
1580,487
1581,492
1582,498
1583,500
1584,487
1585,482
1586,476
1587,473
1588,466
1589,472
1590,468
1591,488
1592,508
1593,527
1594,534
1595,543
1596,545
1597,539
1598,520
1599,510
1600,508
1601,509
1602,504
1603,493
1604,483
1605,487
1606,503
1607,517
1608,520
1609,519
1610,524
1611,533
1612,551
1613,555
1614,537
1615,517
1616,508
1617,494
1618,469
1619,441
1620,428
1621,433
1622,446
1623,462
1624,462
1625,468
1626,478
1627,483
1628,475
1629,466
1630,458
1631,453
1632,458
1633,437
1634,437
1635,463
1636,486
1637,511
1638,533
1639,549
1640,555
1641,560
1642,570
1643,570
1644,557
1645,544
1646,541
1647,544
1648,547
1649,510
1650,500
1651,497
1652,497
1653,488
1654,481
1655,499
1656,526
1657,544
1658,542
1659,527
1660,516
1661,509
1662,497
1663,489
1664,492
1665,515
1666,544
1667,582
1668,624
1669,649
1670,653
1671,647
1672,643
1673,632
1674,629
1675,630
1676,627
1677,603
1678,591
1679,588
1680,594
1681,577
1682,555
1683,532
1684,514
1685,511
1686,500
1687,502
1688,498
1689,470
1690,464
1691,460
1692,443
1693,436
1694,445
1695,467
1696,496
1697,515
1698,525
1699,531
1700,541
1701,535
1702,522
1703,530
1704,539
1705,550
1706,560
1707,551
1708,543
1709,541
1710,541
1711,528
1712,505
1713,499
1714,503
1715,503
1716,498
1717,514
1718,521
1719,518
1720,517
1721,531
1722,544
1723,543
1724,529
1725,528
1726,537
1727,542
1728,540
1729,531
1730,513
1731,505
1732,504
1733,497
1734,494
1735,503
1736,518
1737,524
1738,514
1739,504
1740,516
1741,534
1742,549
1743,557
1744,555
1745,549
1746,543
1747,529
1748,522
1749,523
1750,540
1751,551
1752,562
1753,556
1754,548
1755,559
1756,551
1757,557
1758,540
1759,519
1760,517
1761,525
1762,531
1763,516
1764,481
1765,458
1766,451
1767,465
1768,483
1769,494
1770,508
1771,514
1772,503
1773,474
1774,460
1775,459
1776,456
1777,446
1778,443
1779,434
1780,420
1781,423
1782,430
1783,439
1784,440
1785,440
1786,444
1787,466
1788,482
1789,492
1790,510
1791,521
1792,520
1793,513
1794,504
1795,514
1796,522
1797,529
1798,531
1799,525
1800,534
1801,534
1802,519
1803,504
1804,489
1805,481
1806,466
1807,444
1808,446
1809,469
1810,504
1811,523
1812,516
1813,505
1814,483
1815,457
1816,448
1817,435
1818,439
1819,453
1820,466
1821,467
1822,463
1823,471
1824,475
1825,484
1826,508
1827,527
1828,543
1829,553
1830,557
1831,559
1832,556
1833,531
1834,489
1835,456
1836,450
1837,462
1838,473
1839,485
1840,516
1841,556
1842,583
1843,582
1844,568
1845,558
1846,543
1847,540
1848,544
1849,539
1850,543
1851,553
1852,549
1853,537
1854,519
1855,506
1856,487
1857,478
1858,465
1859,442
1860,423
1861,433
1862,464
1863,478
1864,493
1865,518
1866,531
1867,529
1868,527
1869,512
1870,515
1871,530
1872,549
1873,553
1874,540
1875,544
1876,543
1877,537
1878,535
1879,518
1880,497
1881,481
1882,480
1883,476
1884,462
1885,445
1886,426
1887,432
1888,433
1889,433
1890,439
1891,437
1892,451
1893,477
1894,503
1895,521
1896,513
1897,494
1898,471
1899,451
1900,455
1901,467
1902,484
1903,500
1904,513
1905,530
1906,529
1907,540
1908,535
1909,528
1910,538
1911,542
1912,537
1913,515
1914,492
1915,496
1916,518
1917,538
1918,544
1919,535
1920,534
1921,539
1922,540
1923,522
1924,507
1925,508
1926,516
1927,504
1928,483
1929,468
1930,476
1931,491
1932,504
1933,509
1934,504
1935,503
1936,509
1937,524
1938,531
1939,527
1940,531
1941,538
1942,525
1943,491
1944,466
1945,460
1946,464
1947,489
1948,509
1949,496
1950,482
1951,474
1952,483
1953,474
1954,456
1955,462
1956,473
1957,486
1958,487
1959,507
1960,505
1961,511
1962,512
1963,500
1964,484
1965,494
1966,512
1967,525
1968,532
1969,531
1970,544
1971,551
1972,553
1973,541
1974,525
1975,526
1976,543
1977,546
1978,553
1979,555
1980,565
1981,577
1982,575
1983,554
1984,528
1985,512
1986,502
1987,502
1988,500
1989,489
1990,480
1991,469
1992,460
1993,456
1994,457
1995,477
1996,503
1997,524
1998,526
1999,519
