timestamp,signal
0,512
1,504
2,517
3,540
4,554
5,551
6,539
7,526
8,511
9,502
10,493
11,491
12,490
13,493
14,505
15,504
16,496
17,502
18,513
19,516
20,494
21,489
22,473
23,456
24,462
25,475
26,484
27,494
28,494
29,494
30,478
31,475
32,478
33,477
34,476
35,463
36,462
37,468
38,489
39,512
40,526
41,511
42,504
43,501
44,497
45,498
46,508
47,531
48,550
49,551
50,552
51,570
52,592
53,590
54,566
55,525
56,508
57,509
58,514
59,520
60,514
61,516
62,507
63,492
64,480
65,474
66,487
67,507
68,522
69,541
70,537
71,549
72,566
73,572
74,570
75,560
76,553
77,539
78,525
79,521
80,515
81,517
82,522
83,514
84,512
85,496
86,487
87,480
88,472
89,470
90,463
91,473
92,491
93,507
94,520
95,520
96,523
97,511
98,490
99,476
100,465
101,474
102,487
103,491
104,497
105,515
106,541
107,551
108,572
109,586
110,588
111,590
112,588
113,574
114,551
115,513
116,491
117,476
118,465
119,464
120,459
121,462
122,479
123,498
124,513
125,506
126,496
127,495
128,504
129,512
130,509
131,513
132,522
133,537
134,560
135,550
136,549
137,556
138,552
139,552
140,559
141,566
142,570
143,556
144,542
145,526
146,521
147,511
148,515
149,524
150,535
151,547
152,551
153,553
154,550
155,529
156,538
157,551
158,543
159,534
160,500
161,465
162,460
163,468
164,488
165,503
166,506
167,517
168,523
169,528
170,521
171,525
172,517
173,508
174,526
175,535
176,550
177,555
178,560
179,560
180,562
181,537
182,515
183,493
184,486
185,470
186,440
187,424
188,430
189,454
190,477
191,485
192,488
193,500
194,514
195,519
196,518
197,525
198,536
199,533
200,515
201,501
202,500
203,511
204,515
205,508
206,496
207,489
208,492
209,488
210,484
211,482
212,491
213,496
214,492
215,480
216,468
217,470
218,473
219,481
220,488
221,483
222,482
223,478
224,489
225,489
226,494
227,501
228,504
229,510
230,504
231,515
232,522
233,524
234,534
235,527
236,522
237,528
238,531
239,542
240,545
241,546
242,540
243,532
244,522
245,510
246,516
247,515
248,508
249,503
250,487
251,489
252,491
253,491
254,487
255,475
256,472
257,478
258,485
259,476
260,492
261,512
262,516
263,509
264,506
265,498
266,489
267,484
268,495
269,507
270,513
271,519
272,517
273,501
274,495
275,503
276,524
277,531
278,526
279,529
280,514
281,511
282,527
283,531
284,525
285,520
286,522
287,522
288,524
289,535
290,540
291,539
292,534
293,511
294,492
295,477
296,476
297,483
298,480
299,486
300,483
301,495
302,499
303,492
304,482
305,487
306,508
307,524
308,511
309,499
310,496
311,508
312,523
313,509
314,504
315,502
316,500
317,487
318,488
319,480
320,459
321,457
322,455
323,456
324,471
325,476
326,484
327,492
328,493
329,505
330,514
331,524
332,529
333,529
334,537
335,531
336,535
337,547
338,556
339,559
340,543
341,532
342,532
343,528
344,537
345,548
346,555
347,559
348,536
349,526
350,515
351,509
352,513
353,506
354,508
355,509
356,513
357,524
358,515
359,508
360,483
361,474
362,481
363,485
364,486
365,486
366,498
367,500
368,502
369,510
370,496
371,483
372,485
373,488
374,489
375,494
376,504
377,518
378,519
379,522
380,520
381,519
382,514
383,508
384,519
385,523
386,524
387,527
388,529
389,531
390,517
391,515
392,518
393,532
394,543
395,538
396,524
397,509
398,509
399,508
400,512
401,522
402,539
403,563
404,564
405,560
406,568
407,568
408,552
409,541
410,537
411,529
412,508
413,483
414,467
415,464
416,468
417,489
418,499
419,501
420,479
421,462
422,460
423,469
424,477
425,467
426,461
427,469
428,476
429,495
430,500
431,507
432,526
433,531
434,547
435,554
436,553
437,551
438,550
439,556
440,556
441,559
442,558
443,559
444,557
445,552
446,551
447,550
448,541
449,528
450,522
451,534
452,526
453,493
454,468
455,446
456,440
457,446
458,451
459,484
460,505
461,515
462,520
463,532
464,533
465,517
466,513
467,517
468,509
469,484
470,463
471,469
472,468
473,454
474,459
475,458
476,461
477,473
478,481
479,491
480,503
481,526
482,543
483,547
484,553
485,554
486,562
487,568
488,554
489,557
490,554
491,565
492,584
493,590
494,590
495,577
496,566
497,547
498,520
499,513
500,517
501,537
502,551
503,549
504,551
505,553
506,561
507,555
508,541
509,524
510,522
511,530
512,529
513,530
514,521
515,505
516,504
517,522
518,536
519,546
520,545
521,542
522,550
523,543
524,541
525,525
526,515
527,515
528,525
529,541
530,546
531,561
532,571
533,575
534,563
535,555
536,553
537,550
538,543
539,540
540,531
541,531
542,526
543,514
544,492
545,487
546,487
547,494
548,499
549,503
550,498
551,515
552,524
553,534
554,545
555,544
556,542
557,546
558,547
559,552
560,550
561,556
562,564
563,558
564,539
565,523
566,524
567,515
568,507
569,508
570,503
571,485
572,487
573,495
574,495
575,478
576,460
577,438
578,441
579,434
580,405
581,391
582,403
583,423
584,435
585,442
586,447
587,452
588,459
589,461
590,459
591,467
592,470
593,486
594,490
595,482
596,489
597,499
598,505
599,515
600,515
601,515
602,512
603,524
604,518
605,527
606,536
607,528
608,515
609,509
610,476
611,466
612,443
613,445
614,446
615,437
616,446
617,458
618,462
619,451
620,440
621,452
622,467
623,475
624,470
625,463
626,467
627,480
628,487
629,493
630,506
631,524
632,536
633,547
634,546
635,539
636,542
637,534
638,508
639,493
640,483
641,489
642,488
643,474
644,473
645,478
646,492
647,497
648,487
649,489
650,500
651,511
652,519
653,513
654,496
655,477
656,455
657,438
658,434
659,449
660,452
661,465
662,478
663,493
664,508
665,507
666,513
667,513
668,510
669,502
670,487
671,491
672,495
673,503
674,523
675,519
676,514
677,522
678,527
679,525
680,512
681,504
682,499
683,495
684,500
685,508
686,548
687,550
688,545
689,546
690,538
691,550
692,543
693,539
694,528
695,515
696,496
697,485
698,485
699,503
700,525
701,540
702,551
703,542
704,529
705,523
706,532
707,534
708,526
709,536
710,551
711,558
712,561
713,540
714,513
715,495
716,494
717,487
718,471
719,463
720,468
721,480
722,499
723,509
724,524
725,536
726,534
727,539
728,524
729,519
730,514
731,515
732,525
733,535
734,538
735,524
736,516
737,518
738,516
739,515
740,514
741,518
742,520
743,506
744,512
745,530
746,540
747,550
748,547
749,543
750,527
751,526
752,532
753,526
754,505
755,485
756,486
757,487
758,492
759,511
760,531
761,550
762,563
763,576
764,583
765,584
766,569
767,535
768,527
769,536
770,537
771,541
772,541
773,529
774,514
775,501
776,503
777,498
778,482
779,482
780,470
781,459
782,463
783,480
784,478
785,467
786,468
787,478
788,480
789,478
790,470
791,484
792,504
793,523
794,539
795,542
796,537
797,535
798,537
799,538
800,545
801,547
802,532
803,499
804,477
805,459
806,453
807,455
808,446
809,455
810,457
811,475
812,479
813,484
814,489
815,485
816,495
817,509
818,510
819,510
820,495
821,485
822,490
823,475
824,470
825,469
826,479
827,497
828,501
829,507
830,505
831,491
832,476
833,464
834,467
835,468
836,478
837,494
838,491
839,492
840,490
841,499
842,507
843,511
844,530
845,529
846,536
847,546
848,550
849,551
850,548
851,544
852,540
853,524
854,525
855,517
856,524
857,528
858,523
859,518
860,489
861,472
862,462
863,463
864,484
865,504
866,512
867,523
868,537
869,544
870,547
871,558
872,571
873,557
874,545
875,534
876,534
877,547
878,545
879,540
880,516
881,507
882,513
883,510
884,513
885,522
886,540
887,544
888,533
889,521
890,509
891,507
892,492
893,489
894,499
895,504
896,506
897,504
898,514
899,524
900,534
901,545
902,562
903,570
904,583
905,556
906,535
907,513
908,505
909,504
910,500
911,519
912,531
913,531
914,520
915,491
916,473
917,463
918,448
919,440
920,448
921,468
922,496
923,515
924,528
925,526
926,513
927,505
928,469
929,455
930,445
931,446
932,455
933,463
934,476
935,491
936,513
937,537
938,537
939,527
940,495
941,462
942,438
943,443
944,451
945,454
946,452
947,449
948,440
949,437
950,430
951,438
952,460
953,488
954,519
955,544
956,562
957,576
958,572
959,577
960,575
961,572
962,568
963,552
964,550
965,542
966,542
967,548
968,542
969,530
970,519
971,527
972,548
973,548
974,548
975,553
976,574
977,589
978,577
979,571
980,572
981,571
982,559
983,535
984,519
985,524
986,533
987,533
988,530
989,515
990,499
991,488
992,482
993,480
994,487
995,489
996,494
997,503
998,499
999,504
1000,501
1001,495
1002,484
1003,468
1004,454
1005,440
1006,451
1007,460
1008,458
1009,474
1010,478
1011,487
1012,491
1013,503
1014,515
1015,498
1016,487
1017,458
1018,432
1019,414
1020,406
1021,412
1022,430
1023,462
1024,470
1025,459
1026,448
1027,446
1028,459
1029,475
1030,481
1031,487
1032,493
1033,472
1034,441
1035,406
1036,414
1037,442
1038,476
1039,514
1040,537
1041,540
1042,561
1043,571
1044,580
1045,565
1046,553
1047,545
1048,530
1049,538
1050,543
1051,550
1052,551
1053,556
1054,562
1055,541
1056,534
1057,527
1058,514
1059,521
1060,539
1061,531
1062,519
1063,526
1064,529
1065,535
1066,536
1067,526
1068,518
1069,522
1070,527
1071,530
1072,539
1073,551
1074,552
1075,544
1076,527
1077,499
1078,474
1079,472
1080,474
1081,494
1082,508
1083,518
1084,540
1085,543
1086,540
1087,534
1088,520
1089,524
1090,520
1091,522
1092,519
1093,512
1094,508
1095,497
1096,505
1097,529
1098,539
1099,550
1100,551
1101,568
1102,592
1103,598
1104,598
1105,586
1106,565
1107,556
1108,543
1109,541
1110,529
1111,511
1112,512
1113,486
1114,484
1115,488
1116,497
1117,508
1118,494
1119,483
1120,473
1121,484
1122,504
1123,516
1124,534
1125,531
1126,524
1127,519
1128,504
1129,495
1130,497
1131,511
1132,514
1133,513
1134,512
1135,522
1136,542
1137,541
1138,531
1139,521
1140,507
1141,508
1142,512
1143,521
1144,538
1145,537
1146,534
1147,536
1148,530
1149,524
1150,497
1151,486
1152,490
1153,487
1154,487
1155,475
1156,463
1157,469
1158,465
1159,466
1160,473
1161,496
1162,518
1163,516
1164,511
1165,504
1166,521
1167,527
1168,512
1169,512
1170,521
1171,532
1172,531
1173,518
1174,503
1175,486
1176,487
1177,492
1178,487
1179,493
1180,493
1181,496
1182,479
1183,482
1184,487
1185,495
1186,516
1187,514
1188,504
1189,502
1190,494
1191,502
1192,513
1193,501
1194,497
1195,504
1196,500
1197,488
1198,487
1199,475
1200,461
1201,461
1202,478
1203,496
1204,514
1205,508
1206,515
1207,517
1208,509
1209,507
1210,507
1211,512
1212,506
1213,496
1214,488
1215,477
1216,481
1217,499
1218,518
1219,534
1220,530
1221,532
1222,540
1223,541
1224,543
1225,534
1226,530
1227,529
1228,502
1229,473
1230,458
1231,470
1232,475
1233,481
1234,480
1235,474
1236,480
1237,503
1238,513
1239,512
1240,490
1241,478
1242,475
1243,459
1244,438
1245,424
1246,438
1247,443
1248,455
1249,455
1250,459
1251,475
1252,496
1253,496
1254,508
1255,509
1256,522
1257,536
1258,544
1259,565
1260,572
1261,582
1262,579
1263,575
1264,560
1265,530
1266,513
1267,502
1268,500
1269,510
1270,537
1271,539
1272,537
1273,549
1274,551
1275,544
1276,540
1277,534
1278,541
1279,543
1280,543
1281,546
1282,544
1283,550
1284,535
1285,521
1286,516
1287,491
1288,461
1289,460
1290,465
1291,473
1292,479
1293,484
1294,496
1295,484
1296,469
1297,464
1298,458
1299,459
1300,444
1301,445
1302,459
1303,464
1304,469
1305,483
1306,503
1307,520
1308,521
1309,534
1310,541
1311,557
1312,579
1313,556
1314,543
1315,519
1316,505
1317,506
1318,526
1319,537
1320,543
1321,546
1322,536
1323,532
1324,528
1325,535
1326,526
1327,529
1328,544
1329,560
1330,569
1331,567
1332,569
1333,569
1334,551
1335,524
1336,517
1337,514
1338,510
1339,521
1340,538
1341,544
1342,543
1343,540
1344,526
1345,514
1346,512
1347,518
1348,510
1349,496
1350,495
1351,513
1352,512
1353,495
1354,486
1355,483
1356,497
1357,497
1358,505
1359,507
1360,487
1361,482
1362,486
1363,481
1364,489
1365,496
1366,508
1367,509
1368,494
1369,487
1370,471
1371,476
1372,462
1373,460
1374,461
1375,457
1376,467
1377,486
1378,493
1379,499
1380,504
1381,502
1382,497
1383,485
1384,479
1385,466
1386,463
1387,474
1388,495
1389,503
1390,508
1391,507
1392,522
1393,552
1394,555
1395,559
1396,551
1397,553
1398,558
1399,565
1400,568
1401,570
1402,571
1403,559
1404,545
1405,536
1406,539
1407,539
1408,540
1409,541
1410,522
1411,513
1412,503
1413,496
1414,499
1415,502
1416,520
1417,543
1418,554
1419,564
1420,560
1421,557
1422,543
1423,534
1424,536
1425,533
1426,537
1427,529
1428,509
1429,495
1430,494
1431,507
1432,517
1433,509
1434,492
1435,479
1436,496
1437,520
1438,516
1439,515
1440,521
1441,537
1442,535
1443,525
1444,531
1445,521
1446,516
1447,516
1448,515
1449,505
1450,491
1451,493
1452,498
1453,499
1454,505
1455,501
1456,502
1457,502
1458,497
1459,502
1460,496
1461,504
1462,505
1463,508
1464,524
1465,534
1466,543
1467,554
1468,561
1469,575
1470,564
1471,544
1472,520
1473,488
1474,466
1475,459
1476,475
1477,488
1478,492
1479,511
1480,523
1481,534
1482,529
1483,533
1484,534
1485,530
1486,526
1487,522
1488,522
1489,539
1490,563
1491,567
1492,572
1493,555
1494,541
1495,522
1496,502
1497,499
1498,494
1499,474
1500,435
1501,404
1502,403
1503,414
1504,418
1505,430
1506,443
1507,452
1508,478
1509,489
1510,481
1511,482
1512,480
1513,496
1514,496
1515,490
1516,473
1517,477
1518,500
1519,514
1520,504
1521,498
1522,476
1523,465
1524,480
1525,472
1526,476
1527,480
1528,488
1529,492
1530,492
1531,500
1532,513
1533,529
1534,543
1535,541
1536,551
1537,564
1538,572
1539,576
1540,566
1541,555
1542,535
1543,517
1544,508
1545,494
1546,479
1547,469
1548,459
1549,450
1550,447
1551,466
1552,475
1553,473
1554,479
1555,489
1556,500
1557,518
1558,534
1559,541
1560,551
1561,559
1562,566
1563,552
1564,529
1565,498
1566,484
1567,486
1568,475
1569,492
1570,483
1571,486
1572,477
1573,487
1574,499
1575,506
1576,508
1577,508
1578,507
1579,514
1580,502
1581,506
1582,516
1583,518
1584,517
1585,515
1586,516
1587,508
1588,506
1589,519
1590,523
1591,527
1592,528
1593,527
1594,531
1595,538
1596,550
1597,564
1598,566
1599,566
1600,547
1601,529
1602,516
1603,494
1604,481
1605,483
1606,504
1607,528
1608,543
1609,551
1610,551
1611,552
1612,541
1613,512
1614,501
1615,511
1616,531
1617,519
1618,497
1619,488
1620,472
1621,450
1622,436
1623,451
1624,455
1625,477
1626,508
1627,524
1628,519
1629,486
1630,440
1631,416
1632,406
1633,401
1634,411
1635,419
1636,429
1637,447
1638,464
1639,453
1640,443
1641,446
1642,463
1643,479
1644,493
1645,498
1646,491
1647,484
1648,486
1649,501
1650,508
1651,520
1652,532
1653,539
1654,546
1655,551
1656,557
1657,560
1658,553
1659,542
1660,511
1661,497
1662,500
1663,500
1664,505
1665,502
1666,508
1667,499
1668,488
1669,476
1670,461
1671,462
1672,461
1673,455
1674,460
1675,463
1676,487
1677,515
1678,544
1679,572
1680,572
1681,577
1682,573
1683,565
1684,571
1685,566
1686,553
1687,537
1688,517
1689,509
1690,496
1691,494
1692,505
1693,508
1694,507
1695,493
1696,493
1697,495
1698,514
1699,525
1700,527
1701,531
1702,543
1703,554
1704,542
1705,519
1706,499
1707,493
1708,506
1709,510
1710,496
1711,485
1712,455
1713,417
1714,386
1715,355
1716,339
1717,335
1718,343
1719,357
1720,387
1721,413
1722,452
1723,475
1724,500
1725,510
1726,510
1727,515
1728,520
1729,535
1730,553
1731,572
1732,580
1733,573
1734,561
1735,536
1736,526
1737,527
1738,524
1739,519
1740,494
1741,501
1742,509
1743,511
1744,508
1745,487
1746,470
1747,467
1748,477
1749,470
1750,463
1751,468
1752,487
1753,500
1754,496
1755,490
1756,495
1757,502
1758,498
1759,495
1760,482
1761,489
1762,496
1763,512
1764,518
1765,508
1766,513
1767,524
1768,533
1769,530
1770,524
1771,521
1772,530
1773,551
1774,574
1775,580
1776,583
1777,584
1778,589
1779,582
1780,579
1781,580
1782,569
1783,566
1784,566
1785,566
1786,551
1787,530
1788,526
1789,522
1790,503
1791,492
1792,489
1793,497
1794,505
1795,517
1796,541
1797,541
1798,520
1799,512
1800,512
1801,518
1802,514
1803,505
1804,497
1805,494
1806,503
1807,511
1808,521
1809,536
1810,546
1811,551
1812,550
1813,535
1814,527
1815,519
1816,521
1817,527
1818,531
1819,535
1820,536
1821,536
1822,525
1823,519
1824,526
1825,529
1826,534
1827,552
1828,572
1829,585
1830,588
1831,588
1832,594
1833,619
1834,626
1835,631
1836,613
1837,595
1838,584
1839,560
1840,534
1841,534
1842,540
1843,523
1844,498
1845,475
1846,463
1847,468
1848,486
1849,519
1850,545
1851,560
1852,556
1853,523
1854,496
1855,482
1856,489
1857,496
1858,503
1859,515
1860,525
1861,538
1862,548
1863,542
1864,538
1865,527
1866,508
1867,496
1868,486
1869,489
1870,494
1871,512
1872,521
1873,525
1874,537
1875,531
1876,511
1877,493
1878,478
1879,473
1880,467
1881,470
1882,462
1883,457
1884,458
1885,443
1886,424
1887,412
1888,411
1889,419
1890,432
1891,433
1892,440
1893,441
1894,444
1895,454
1896,466
1897,477
1898,479
1899,488
1900,493
1901,481
1902,486
1903,495
1904,519
1905,507
1906,505
1907,510
1908,513
1909,512
1910,510
1911,509
1912,514
1913,522
1914,522
1915,506
1916,497
1917,493
1918,503
1919,507
1920,500
1921,493
1922,494
1923,506
1924,491
1925,472
1926,465
1927,467
1928,480
1929,484
1930,475
1931,476
1932,491
1933,508
1934,512
1935,505
1936,497
1937,484
1938,477
1939,476
1940,460
1941,457
1942,453
1943,444
1944,452
1945,443
1946,443
1947,443
1948,435
1949,442
1950,453
1951,472
1952,497
1953,512
1954,519
1955,527
1956,543
1957,558
1958,546
1959,529
1960,518
1961,524
1962,534
1963,513
1964,495
1965,480
1966,473
1967,481
1968,487
1969,504
1970,514
1971,536
1972,551
1973,552
1974,554
1975,537
1976,525
1977,504
1978,480
1979,479
1980,470
1981,474
1982,488
1983,498
1984,520
1985,526
1986,533
1987,543
1988,566
1989,578
1990,575
1991,565
1992,552
1993,551
1994,547
1995,544
1996,547
1997,558
1998,565
1999,553
