timestamp,signal
0,546
1,543
2,537
3,529
4,513
5,519
6,532
7,551
8,559
9,547
10,535
11,522
12,505
13,497
14,481
15,482
16,492
17,498
18,521
19,535
20,540
21,531
22,515
23,501
24,485
25,484
26,489
27,489
28,491
29,479
30,475
31,486
32,500
33,498
34,473
35,474
36,484
37,501
38,509
39,509
40,530
41,554
42,568
43,568
44,564
45,567
46,575
47,581
48,573
49,546
50,536
51,538
52,542
53,536
54,514
55,504
56,500
57,503
58,498
59,488
60,499
61,506
62,519
63,515
64,496
65,494
66,504
67,515
68,521
69,511
70,515
71,527
72,522
73,512
74,506
75,503
76,516
77,531
78,535
79,521
80,501
81,485
82,484
83,497
84,505
85,529
86,552
87,570
88,569
89,556
90,558
91,563
92,571
93,559
94,531
95,521
96,509
97,490
98,472
99,461
100,486
101,515
102,534
103,543
104,541
105,541
106,545
107,547
108,539
109,522
110,522
111,527
112,522
113,523
114,513
115,520
116,526
117,512
118,507
119,490
120,492
121,506
122,525
123,548
124,560
125,577
126,588
127,586
128,573
129,563
130,560
131,551
132,557
133,568
134,557
135,557
136,551
137,550
138,561
139,571
140,582
141,569
142,542
143,523
144,500
145,492
146,486
147,489
148,493
149,491
150,510
151,523
152,528
153,519
154,499
155,496
156,488
157,479
158,466
159,439
160,433
161,438
162,456
163,471
164,461
165,452
166,448
167,449
168,446
169,447
170,436
171,445
172,470
173,475
174,448
175,431
176,423
177,434
178,421
179,400
180,402
181,423
182,447
183,445
184,428
185,428
186,443
187,461
188,467
189,451
190,412
191,400
192,410
193,419
194,414
195,425
196,435
197,445
198,455
199,460
200,479
201,502
202,526
203,553
204,564
205,557
206,547
207,543
208,542
209,541
210,553
211,557
212,551
213,546
214,526
215,528
216,532
217,527
218,522
219,500
220,493
221,498
222,515
223,524
224,516
225,521
226,534
227,552
228,550
229,524
230,524
231,535
232,547
233,555
234,540
235,527
236,519
237,521
238,535
239,530
240,533
241,548
242,552
243,554
244,552
245,559
246,561
247,567
248,565
249,556
250,560
251,559
252,542
253,511
254,484
255,489
256,504
257,508
258,496
259,463
260,454
261,464
262,451
263,457
264,471
265,493
266,501
267,496
268,489
269,496
270,512
271,529
272,539
273,540
274,543
275,559
276,576
277,578
278,566
279,543
280,531
281,518
282,512
283,506
284,489
285,483
286,465
287,476
288,489
289,490
290,507
291,526
292,539
293,545
294,517
295,504
296,504
297,493
298,491
299,467
300,454
301,462
302,473
303,480
304,473
305,486
306,492
307,487
308,463
309,432
310,435
311,453
312,470
313,470
314,458
315,467
316,490
317,515
318,517
319,497
320,494
321,497
322,507
323,527
324,531
325,551
326,578
327,588
328,600
329,611
330,612
331,600
332,569
333,548
334,535
335,539
336,543
337,541
338,532
339,513
340,510
341,517
342,514
343,507
344,501
345,524
346,536
347,539
348,544
349,534
350,527
351,524
352,512
353,484
354,447
355,437
356,452
357,477
358,488
359,492
360,508
361,516
362,518
363,508
364,493
365,499
366,509
367,509
368,502
369,483
370,480
371,495
372,514
373,522
374,508
375,500
376,487
377,473
378,458
379,435
380,437
381,461
382,469
383,475
384,462
385,470
386,481
387,487
388,495
389,506
390,512
391,512
392,519
393,522
394,515
395,519
396,536
397,539
398,541
399,517
400,508
401,519
402,525
403,532
404,511
405,491
406,472
407,470
408,471
409,465
410,476
411,486
412,486
413,479
414,446
415,435
416,441
417,450
418,463
419,476
420,486
421,487
422,488
423,487
424,486
425,496
426,490
427,486
428,469
429,456
430,469
431,480
432,497
433,513
434,518
435,539
436,556
437,565
438,557
439,529
440,523
441,547
442,558
443,569
444,548
445,542
446,544
447,547
448,546
449,533
450,526
451,516
452,510
453,500
454,483
455,479
456,476
457,480
458,490
459,486
460,499
461,520
462,540
463,543
464,526
465,516
466,516
467,517
468,522
469,517
470,527
471,540
472,563
473,580
474,583
475,579
476,555
477,540
478,519
479,503
480,497
481,496
482,501
483,479
484,445
485,423
486,420
487,438
488,448
489,449
490,470
491,473
492,495
493,518
494,534
495,546
496,551
497,558
498,558
499,544
500,549
501,561
502,574
503,574
504,546
505,543
506,567
507,598
508,584
509,560
510,563
511,565
512,557
513,552
514,544
515,545
516,554
517,557
518,546
519,540
520,551
521,561
522,568
523,573
524,564
525,553
526,551
527,554
528,555
529,540
530,544
531,557
532,549
533,544
534,520
535,511
536,527
537,535
538,517
539,492
540,492
541,499
542,495
543,491
544,476
545,470
546,475
547,492
548,511
549,513
550,519
551,539
552,558
553,556
554,545
555,542
556,540
557,540
558,534
559,531
560,543
561,554
562,559
563,549
564,527
565,523
566,527
567,521
568,507
569,486
570,482
571,478
572,478
573,465
574,440
575,434
576,434
577,437
578,440
579,440
580,447
581,459
582,479
583,479
584,470
585,466
586,477
587,489
588,480
589,462
590,465
591,449
592,448
593,439
594,436
595,435
596,438
597,447
598,459
599,471
600,480
601,470
602,445
603,437
604,445
605,487
606,510
607,525
608,509
609,483
610,479
611,489
612,502
613,513
614,508
615,504
616,499
617,484
618,478
619,460
620,453
621,467
622,495
623,505
624,508
625,526
626,549
627,565
628,550
629,519
630,516
631,524
632,527
633,530
634,510
635,520
636,528
637,528
638,522
639,503
640,502
641,512
642,527
643,531
644,506
645,483
646,478
647,477
648,478
649,465
650,472
651,477
652,476
653,469
654,448
655,441
656,436
657,444
658,447
659,445
660,456
661,471
662,474
663,474
664,470
665,480
666,503
667,522
668,515
669,500
670,504
671,512
672,522
673,504
674,491
675,487
676,477
677,480
678,491
679,500
680,515
681,526
682,540
683,543
684,528
685,516
686,507
687,515
688,514
689,500
690,500
691,496
692,486
693,483
694,466
695,453
696,438
697,451
698,457
699,448
700,452
701,470
702,489
703,486
704,476
705,485
706,486
707,499
708,496
709,467
710,446
711,444
712,451
713,452
714,438
715,437
716,455
717,473
718,495
719,502
720,515
721,535
722,550
723,561
724,556
725,555
726,554
727,557
728,567
729,557
730,550
731,546
732,540
733,529
734,519
735,536
736,549
737,565
738,571
739,554
740,551
741,559
742,568
743,567
744,550
745,555
746,551
747,530
748,517
749,494
750,487
751,484
752,497
753,494
754,478
755,469
756,472
757,480
758,471
759,450
760,447
761,462
762,488
763,492
764,485
765,489
766,504
767,524
768,521
769,497
770,485
771,481
772,491
773,487
774,470
775,463
776,451
777,441
778,449
779,448
780,466
781,485
782,491
783,497
784,501
785,497
786,494
787,497
788,508
789,515
790,542
791,572
792,571
793,556
794,528
795,520
796,530
797,538
798,546
799,540
800,543
801,542
802,542
803,541
804,534
805,540
806,549
807,542
808,541
809,539
810,548
811,551
812,559
813,574
814,563
815,547
816,540
817,540
818,514
819,485
820,471
821,462
822,462
823,467
824,469
825,480
826,495
827,519
828,526
829,511
830,508
831,494
832,486
833,476
834,468
835,477
836,488
837,497
838,510
839,514
840,510
841,518
842,518
843,509
844,479
845,485
846,475
847,475
848,472
849,463
850,472
851,485
852,497
853,503
854,487
855,480
856,492
857,510
858,524
859,526
860,531
861,540
862,542
863,542
864,529
865,540
866,550
867,564
868,571
869,556
870,544
871,539
872,531
873,510
874,487
875,497
876,508
877,512
878,504
879,497
880,505
881,510
882,517
883,505
884,482
885,486
886,500
887,516
888,524
889,503
890,484
891,472
892,466
893,465
894,458
895,471
896,492
897,512
898,542
899,563
900,590
901,604
902,610
903,604
904,587
905,582
906,579
907,576
908,562
909,535
910,538
911,538
912,535
913,529
914,524
915,533
916,546
917,560
918,564
919,551
920,555
921,561
922,561
923,566
924,554
925,572
926,588
927,593
928,589
929,577
930,569
931,562
932,565
933,559
934,539
935,538
936,551
937,556
938,543
939,522
940,526
941,525
942,527
943,526
944,512
945,515
946,521
947,527
948,537
949,531
950,535
951,547
952,553
953,551
954,538
955,546
956,554
957,556
958,558
959,538
960,539
961,541
962,541
963,537
964,527
965,509
966,501
967,512
968,519
969,505
970,500
971,489
972,477
973,476
974,459
975,448
976,457
977,477
978,481
979,483
980,479
981,500
982,523
983,536
984,540
985,563
986,562
987,560
988,538
989,506
990,510
991,530
992,527
993,519
994,489
995,488
996,497
997,514
998,521
999,520
1000,533
1001,542
1002,543
1003,519
1004,494
1005,489
1006,492
1007,511
1008,516
1009,511
1010,520
1011,537
1012,560
1013,571
1014,567
1015,564
1016,551
1017,548
1018,538
1019,522
1020,515
1021,492
1022,485
1023,482
1024,474
1025,482
1026,496
1027,520
1028,540
1029,547
1030,539
1031,515
1032,499
1033,473
1034,434
1035,398
1036,391
1037,411
1038,413
1039,392
1040,383
1041,403
1042,440
1043,492
1044,507
1045,518
1046,523
1047,520
1048,507
1049,499
1050,476
1051,482
1052,494
1053,488
1054,479
1055,489
1056,501
1057,511
1058,497
1059,480
1060,481
1061,475
1062,483
1063,481
1064,473
1065,479
1066,485
1067,491
1068,482
1069,466
1070,460
1071,471
1072,481
1073,486
1074,479
1075,487
1076,499
1077,511
1078,520
1079,522
1080,529
1081,533
1082,541
1083,548
1084,536
1085,518
1086,506
1087,501
1088,492
1089,472
1090,466
1091,479
1092,482
1093,495
1094,511
1095,525
1096,528
1097,517
1098,515
1099,522
1100,532
1101,537
1102,543
1103,554
1104,571
1105,578
1106,570
1107,555
1108,542
1109,524
1110,526
1111,535
1112,539
1113,530
1114,507
1115,507
1116,525
1117,542
1118,544
1119,531
1120,547
1121,560
1122,555
1123,540
1124,516
1125,519
1126,527
1127,535
1128,532
1129,523
1130,519
1131,505
1132,494
1133,486
1134,484
1135,501
1136,510
1137,507
1138,500
1139,498
1140,523
1141,545
1142,554
1143,553
1144,540
1145,544
1146,557
1147,555
1148,548
1149,534
1150,532
1151,525
1152,524
1153,518
1154,494
1155,502
1156,505
1157,530
1158,548
1159,536
1160,535
1161,543
1162,548
1163,530
1164,503
1165,494
1166,490
1167,500
1168,501
1169,494
1170,502
1171,509
1172,516
1173,515
1174,507
1175,521
1176,538
1177,551
1178,553
1179,557
1180,560
1181,553
1182,528
1183,511
1184,495
1185,499
1186,508
1187,506
1188,502
1189,509
1190,531
1191,550
1192,555
1193,545
1194,542
1195,547
1196,548
1197,555
1198,553
1199,536
1200,534
1201,532
1202,540
1203,546
1204,543
1205,547
1206,560
1207,574
1208,574
1209,561
1210,541
1211,528
1212,510
1213,503
1214,483
1215,478
1216,476
1217,477
1218,473
1219,457
1220,456
1221,470
1222,483
1223,487
1224,473
1225,475
1226,486
1227,495
1228,492
1229,485
1230,466
1231,439
1232,414
1233,394
1234,376
1235,382
1236,410
1237,433
1238,449
1239,459
1240,482
1241,502
1242,524
1243,532
1244,509
1245,501
1246,487
1247,472
1248,466
1249,461
1250,469
1251,475
1252,475
1253,476
1254,465
1255,464
1256,471
1257,471
1258,474
1259,471
1260,488
1261,512
1262,531
1263,553
1264,561
1265,556
1266,542
1267,516
1268,482
1269,449
1270,428
1271,416
1272,403
1273,383
1274,372
1275,403
1276,433
1277,458
1278,481
1279,475
1280,480
1281,496
1282,508
1283,516
1284,506
1285,503
1286,502
1287,513
1288,526
1289,524
1290,512
1291,519
1292,515
1293,495
1294,465
1295,444
1296,434
1297,441
1298,428
1299,414
1300,416
1301,428
1302,454
1303,465
1304,468
1305,483
1306,491
1307,510
1308,508
1309,483
1310,456
1311,440
1312,440
1313,438
1314,423
1315,420
1316,423
1317,437
1318,459
1319,465
1320,471
1321,472
1322,478
1323,497
1324,505
1325,522
1326,538
1327,542
1328,554
1329,558
1330,566
1331,571
1332,570
1333,568
1334,561
1335,565
1336,573
1337,588
1338,600
1339,595
1340,587
1341,581
1342,587
1343,572
1344,560
1345,570
1346,577
1347,579
1348,579
1349,568
1350,554
1351,536
1352,521
1353,512
1354,498
1355,501
1356,527
1357,543
1358,557
1359,552
1360,563
1361,564
1362,553
1363,537
1364,515
1365,524
1366,533
1367,538
1368,536
1369,518
1370,522
1371,535
1372,547
1373,562
1374,570
1375,580
1376,576
1377,539
1378,507
1379,497
1380,511
1381,539
1382,542
1383,541
1384,535
1385,551
1386,566
1387,569
1388,572
1389,563
1390,559
1391,555
1392,549
1393,550
1394,544
1395,545
1396,546
1397,550
1398,556
1399,540
1400,529
1401,515
1402,513
1403,520
1404,505
1405,499
1406,496
1407,507
1408,534
1409,526
1410,510
1411,496
1412,484
1413,467
1414,447
1415,446
1416,455
1417,469
1418,480
1419,472
1420,474
1421,488
1422,504
1423,511
1424,505
1425,496
1426,485
1427,481
1428,453
1429,428
1430,426
1431,435
1432,435
1433,444
1434,452
1435,472
1436,494
1437,514
1438,536
1439,526
1440,537
1441,544
1442,541
1443,531
1444,519
1445,519
1446,515
1447,510
1448,499
1449,479
1450,487
1451,488
1452,500
1453,499
1454,487
1455,486
1456,478
1457,471
1458,466
1459,455
1460,459
1461,472
1462,486
1463,499
1464,499
1465,513
1466,520
1467,514
1468,517
1469,513
1470,518
1471,529
1472,532
1473,529
1474,517
1475,531
1476,541
1477,542
1478,528
1479,508
1480,513
1481,516
1482,512
1483,522
1484,522
1485,528
1486,527
1487,514
1488,494
1489,468
1490,464
1491,487
1492,516
1493,519
1494,506
1495,512
1496,524
1497,521
1498,508
1499,494
1500,502
1501,515
1502,527
1503,528
1504,528
1505,536
1506,542
1507,559
1508,560
1509,534
1510,518
1511,502
1512,509
1513,503
1514,476
1515,466
1516,478
1517,499
1518,506
1519,499
1520,519
1521,537
1522,532
1523,503
1524,489
1525,505
1526,518
1527,527
1528,525
1529,514
1530,511
1531,515
1532,517
1533,521
1534,496
1535,494
1536,505
1537,508
1538,519
1539,500
1540,495
1541,499
1542,504
1543,519
1544,536
1545,563
1546,573
1547,568
1548,549
1549,522
1550,517
1551,519
1552,516
1553,496
1554,464
1555,461
1556,476
1557,504
1558,520
1559,513
1560,532
1561,535
1562,544
1563,548
1564,542
1565,539
1566,529
1567,525
1568,523
1569,531
1570,540
1571,539
1572,536
1573,544
1574,571
1575,572
1576,575
1577,564
1578,553
1579,546
1580,552
1581,560
1582,563
1583,555
1584,543
1585,543
1586,550
1587,552
1588,539
1589,509
1590,501
1591,498
1592,494
1593,487
1594,480
1595,486
1596,498
1597,511
1598,516
1599,516
1600,521
1601,528
1602,521
1603,503
1604,475
1605,472
1606,488
1607,512
1608,529
1609,510
1610,507
1611,524
1612,533
1613,537
1614,525
1615,533
1616,533
1617,534
1618,533
1619,516
1620,519
1621,532
1622,535
1623,538
1624,519
1625,521
1626,541
1627,551
1628,549
1629,529
1630,519
1631,496
1632,478
1633,465
1634,451
1635,448
1636,454
1637,486
1638,486
1639,477
1640,495
1641,508
1642,509
1643,507
1644,493
1645,496
1646,492
1647,486
1648,479
1649,472
1650,480
1651,499
1652,532
1653,533
1654,529
1655,536
1656,544
1657,553
1658,563
1659,560
1660,561
1661,559
1662,544
1663,520
1664,482
1665,469
1666,465
1667,463
1668,467
1669,454
1670,464
1671,478
1672,497
1673,499
1674,483
1675,479
1676,483
1677,494
1678,500
1679,492
1680,502
1681,508
1682,510
1683,505
1684,497
1685,511
1686,532
1687,526
1688,525
1689,512
1690,511
1691,513
1692,514
1693,499
1694,475
1695,486
1696,506
1697,511
1698,518
1699,515
1700,519
1701,524
1702,528
1703,526
1704,524
1705,528
1706,519
1707,493
1708,478
1709,467
1710,475
1711,477
1712,473
1713,476
1714,480
1715,492
1716,498
1717,496
1718,497
1719,483
1720,481
1721,492
1722,508
1723,515
1724,497
1725,484
1726,487
1727,498
1728,499
1729,476
1730,454
1731,452
1732,465
1733,462
1734,453
1735,457
1736,457
1737,463
1738,451
1739,431
1740,416
1741,412
1742,420
1743,431
1744,456
1745,489
1746,510
1747,529
1748,542
1749,531
1750,528
1751,529
1752,534
1753,520
1754,481
1755,450
1756,445
1757,451
1758,459
1759,470
1760,486
1761,505
1762,519
1763,514
1764,496
1765,504
1766,514
1767,515
1768,508
1769,482
1770,480
1771,487
1772,503
1773,525
1774,516
1775,527
1776,529
1777,520
1778,512
1779,511
1780,524
1781,526
1782,531
1783,535
1784,538
1785,550
1786,554
1787,550
1788,541
1789,526
1790,519
1791,507
1792,489
1793,478
1794,455
1795,451
1796,444
1797,441
1798,443
1799,455
1800,494
1801,530
1802,549
1803,550
1804,536
1805,520
1806,521
1807,515
1808,514
1809,518
1810,536
1811,540
1812,526
1813,522
1814,516
1815,529
1816,546
1817,543
1818,537
1819,513
1820,509
1821,509
1822,512
1823,506
1824,488
1825,494
1826,506
1827,517
1828,505
1829,486
1830,488
1831,487
1832,491
1833,505
1834,501
1835,507
1836,515
1837,527
1838,526
1839,507
1840,503
1841,506
1842,512
1843,520
1844,521
1845,535
1846,541
1847,534
1848,520
1849,510
1850,528
1851,544
1852,550
1853,547
1854,533
1855,541
1856,552
1857,557
1858,563
1859,547
1860,534
1861,524
1862,515
1863,507
1864,494
1865,497
1866,512
1867,530
1868,545
1869,549
1870,560
1871,572
1872,577
1873,587
1874,570
1875,589
1876,587
1877,566
1878,540
1879,505
1880,504
1881,528
1882,526
1883,520
1884,518
1885,524
1886,531
1887,541
1888,524
1889,496
1890,479
1891,480
1892,489
1893,486
1894,482
1895,490
1896,489
1897,500
1898,486
1899,474
1900,463
1901,452
1902,448
1903,454
1904,466
1905,478
1906,504
1907,505
1908,489
1909,448
1910,411
1911,399
1912,408
1913,418
1914,413
1915,411
1916,421
1917,444
1918,449
1919,444
1920,455
1921,475
1922,507
1923,529
1924,536
1925,543
1926,530
1927,511
1928,488
1929,467
1930,455
1931,459
1932,470
1933,474
1934,473
1935,481
1936,493
1937,512
1938,527
1939,524
1940,536
1941,543
1942,536
1943,525
1944,493
1945,477
1946,482
1947,497
1948,507
1949,500
1950,502
1951,493
1952,480
1953,481
1954,477
1955,491
1956,507
1957,522
1958,527
1959,521
1960,534
1961,552
1962,563
1963,558
1964,516
1965,495
1966,484
1967,468
1968,460
1969,466
1970,490
1971,515
1972,523
1973,530
1974,518
1975,519
1976,511
1977,497
1978,494
1979,484
1980,485
1981,493
1982,492
1983,489
1984,497
1985,519
1986,532
1987,532
1988,523
1989,492
1990,484
1991,489
1992,489
1993,492
1994,497
1995,507
1996,524
1997,544
1998,558
1999,558
