timestamp,signal
0,553
1,563
2,561
3,546
4,524
5,513
6,516
7,504
8,492
9,497
10,496
11,496
12,483
13,465
14,438
15,423
16,408
17,402
18,391
19,370
20,369
21,374
22,396
23,418
24,436
25,454
26,452
27,454
28,465
29,470
30,485
31,503
32,515
33,521
34,514
35,509
36,510
37,512
38,515
39,505
40,505
41,513
42,517
43,525
44,528
45,541
46,558
47,562
48,567
49,557
50,541
51,527
52,514
53,499
54,487
55,493
56,505
57,495
58,490
59,486
60,498
61,517
62,539
63,557
64,568
65,559
66,546
67,534
68,545
69,549
70,556
71,547
72,534
73,527
74,522
75,523
76,543
77,558
78,568
79,568
80,583
81,584
82,582
83,579
84,572
85,574
86,573
87,534
88,518
89,496
90,490
91,477
92,462
93,467
94,455
95,457
96,470
97,482
98,494
99,491
100,482
101,477
102,470
103,474
104,480
105,490
106,497
107,487
108,476
109,471
110,487
111,512
112,510
113,510
114,499
115,489
116,487
117,479
118,464
119,451
120,446
121,443
122,452
123,448
124,441
125,446
126,456
127,481
128,502
129,506
130,490
131,468
132,463
133,464
134,467
135,472
136,472
137,477
138,485
139,501
140,520
141,526
142,533
143,529
144,523
145,519
146,519
147,520
148,526
149,486
150,462
151,454
152,443
153,445
154,457
155,483
156,510
157,522
158,534
159,541
160,556
161,559
162,555
163,555
164,538
165,519
166,506
167,498
168,510
169,526
170,549
171,561
172,553
173,539
174,527
175,543
176,566
177,584
178,576
179,548
180,520
181,490
182,477
183,476
184,473
185,484
186,499
187,511
188,535
189,536
190,530
191,517
192,508
193,515
194,505
195,517
196,519
197,531
198,533
199,519
200,515
201,521
202,526
203,526
204,515
205,500
206,487
207,491
208,499
209,510
210,523
211,535
212,542
213,527
214,526
215,517
216,515
217,519
218,522
219,530
220,556
221,569
222,567
223,573
224,567
225,568
226,549
227,527
228,515
229,505
230,498
231,478
232,446
233,432
234,429
235,426
236,426
237,433
238,446
239,455
240,471
241,484
242,496
243,514
244,510
245,515
246,513
247,504
248,515
249,524
250,532
251,544
252,557
253,559
254,557
255,549
256,539
257,511
258,494
259,487
260,490
261,503
262,504
263,509
264,504
265,499
266,515
267,525
268,532
269,528
270,527
271,512
272,507
273,516
274,519
275,519
276,518
277,510
278,496
279,474
280,462
281,461
282,465
283,480
284,485
285,490
286,496
287,500
288,496
289,502
290,526
291,541
292,551
293,546
294,531
295,531
296,527
297,520
298,520
299,506
300,499
301,506
302,507
303,512
304,481
305,475
306,487
307,500
308,508
309,499
310,479
311,455
312,451
313,457
314,478
315,503
316,506
317,525
318,536
319,537
320,546
321,548
322,521
323,508
324,504
325,488
326,476
327,461
328,455
329,458
330,481
331,505
332,526
333,544
334,550
335,551
336,527
337,509
338,511
339,504
340,510
341,513
342,518
343,528
344,532
345,544
346,544
347,531
348,519
349,504
350,499
351,485
352,463
353,459
354,440
355,434
356,439
357,448
358,467
359,477
360,492
361,513
362,519
363,519
364,503
365,498
366,494
367,489
368,501
369,511
370,513
371,513
372,514
373,530
374,535
375,539
376,526
377,489
378,467
379,465
380,473
381,470
382,464
383,486
384,494
385,491
386,486
387,483
388,484
389,494
390,518
391,533
392,542
393,554
394,559
395,564
396,570
397,573
398,564
399,546
400,541
401,536
402,519
403,514
404,477
405,463
406,471
407,483
408,500
409,493
410,497
411,493
412,486
413,484
414,479
415,486
416,486
417,480
418,487
419,497
420,517
421,536
422,553
423,569
424,584
425,586
426,586
427,567
428,558
429,559
430,555
431,547
432,533
433,528
434,534
435,534
436,532
437,524
438,521
439,539
440,564
441,572
442,560
443,546
444,534
445,535
446,536
447,536
448,540
449,538
450,534
451,527
452,516
453,498
454,471
455,452
456,450
457,463
458,494
459,505
460,514
461,501
462,482
463,485
464,488
465,483
466,487
467,487
468,485
469,478
470,465
471,465
472,461
473,466
474,463
475,472
476,504
477,520
478,536
479,542
480,526
481,514
482,508
483,515
484,518
485,527
486,534
487,524
488,516
489,516
490,516
491,514
492,511
493,519
494,514
495,506
496,497
497,484
498,467
499,453
500,454
501,457
502,446
503,432
504,412
505,410
506,414
507,412
508,414
509,425
510,443
511,453
512,462
513,476
514,495
515,521
516,551
517,550
518,533
519,510
520,499
521,504
522,496
523,486
524,455
525,444
526,448
527,444
528,445
529,438
530,445
531,447
532,465
533,486
534,490
535,507
536,518
537,516
538,509
539,494
540,487
541,495
542,505
543,514
544,524
545,536
546,539
547,537
548,539
549,534
550,531
551,533
552,543
553,546
554,539
555,526
556,513
557,508
558,506
559,512
560,515
561,519
562,518
563,506
564,500
565,507
566,518
567,521
568,514
569,507
570,511
571,522
572,529
573,548
574,572
575,606
576,625
577,626
578,624
579,624
580,623
581,616
582,593
583,575
584,565
585,570
586,573
587,563
588,559
589,554
590,558
591,553
592,532
593,521
594,518
595,502
596,508
597,489
598,483
599,477
600,483
601,471
602,452
603,435
604,426
605,434
606,453
607,478
608,508
609,515
610,520
611,544
612,552
613,561
614,556
615,553
616,546
617,541
618,544
619,540
620,531
621,521
622,512
623,512
624,521
625,528
626,528
627,517
628,509
629,519
630,534
631,540
632,551
633,570
634,579
635,567
636,543
637,539
638,539
639,539
640,534
641,521
642,523
643,530
644,528
645,539
646,538
647,535
648,531
649,521
650,527
651,525
652,523
653,512
654,501
655,499
656,493
657,484
658,475
659,459
660,468
661,489
662,499
663,506
664,500
665,501
666,499
667,497
668,503
669,502
670,503
671,518
672,504
673,503
674,502
675,508
676,513
677,505
678,491
679,471
680,469
681,468
682,472
683,487
684,503
685,522
686,542
687,551
688,548
689,531
690,520
691,506
692,497
693,506
694,512
695,531
696,524
697,502
698,493
699,479
700,471
701,470
702,466
703,466
704,480
705,502
706,520
707,520
708,528
709,536
710,535
711,528
712,526
713,521
714,493
715,480
716,480
717,483
718,497
719,516
720,532
721,543
722,547
723,537
724,518
725,504
726,495
727,488
728,487
729,478
730,481
731,487
732,474
733,475
734,477
735,489
736,509
737,503
738,494
739,486
740,490
741,493
742,492
743,501
744,471
745,469
746,479
747,476
748,477
749,468
750,480
751,495
752,519
753,540
754,527
755,509
756,499
757,517
758,536
759,523
760,519
761,530
762,548
763,564
764,556
765,541
766,529
767,507
768,497
769,508
770,523
771,517
772,494
773,483
774,481
775,498
776,503
777,496
778,498
779,495
780,482
781,471
782,468
783,463
784,468
785,486
786,504
787,501
788,497
789,496
790,505
791,498
792,478
793,481
794,492
795,504
796,505
797,500
798,495
799,493
800,504
801,523
802,537
803,549
804,547
805,546
806,545
807,532
808,526
809,503
810,497
811,497
812,506
813,513
814,510
815,503
816,502
817,506
818,509
819,491
820,482
821,480
822,480
823,490
824,498
825,514
826,543
827,551
828,557
829,555
830,557
831,557
832,554
833,568
834,570
835,564
836,563
837,544
838,541
839,548
840,560
841,565
842,557
843,538
844,540
845,553
846,557
847,524
848,501
849,500
850,488
851,483
852,466
853,465
854,466
855,482
856,510
857,512
858,518
859,525
860,528
861,528
862,531
863,532
864,524
865,533
866,550
867,575
868,576
869,575
870,592
871,583
872,560
873,557
874,553
875,551
876,555
877,562
878,566
879,561
880,576
881,591
882,605
883,617
884,597
885,589
886,580
887,574
888,575
889,568
890,565
891,564
892,544
893,518
894,495
895,472
896,455
897,421
898,402
899,409
900,410
901,435
902,455
903,479
904,499
905,505
906,498
907,476
908,477
909,469
910,478
911,485
912,477
913,486
914,506
915,531
916,520
917,520
918,528
919,528
920,520
921,498
922,467
923,456
924,455
925,455
926,467
927,458
928,453
929,466
930,481
931,488
932,487
933,488
934,492
935,499
936,504
937,493
938,494
939,494
940,493
941,496
942,496
943,496
944,496
945,501
946,504
947,508
948,503
949,492
950,497
951,499
952,501
953,514
954,512
955,508
956,503
957,498
958,507
959,524
960,556
961,580
962,577
963,572
964,556
965,537
966,533
967,516
968,502
969,491
970,492
971,488
972,473
973,471
974,462
975,466
976,492
977,494
978,508
979,496
980,470
981,464
982,454
983,443
984,441
985,451
986,460
987,479
988,499
989,516
990,535
991,553
992,546
993,536
994,526
995,525
996,524
997,511
998,502
999,489
1000,488
1001,495
1002,483
1003,479
1004,483
1005,492
1006,502
1007,487
1008,473
1009,457
1010,457
1011,476
1012,496
1013,511
1014,511
1015,527
1016,540
1017,537
1018,539
1019,540
1020,538
1021,542
1022,548
1023,555
1024,551
1025,553
1026,559
1027,551
1028,544
1029,538
1030,539
1031,536
1032,524
1033,508
1034,496
1035,497
1036,512
1037,520
1038,534
1039,538
1040,554
1041,575
1042,592
1043,598
1044,578
1045,553
1046,542
1047,528
1048,520
1049,522
1050,534
1051,557
1052,562
1053,561
1054,548
1055,542
1056,531
1057,522
1058,523
1059,508
1060,495
1061,491
1062,492
1063,505
1064,515
1065,504
1066,491
1067,489
1068,491
1069,480
1070,467
1071,463
1072,466
1073,462
1074,462
1075,474
1076,488
1077,491
1078,509
1079,525
1080,543
1081,539
1082,535
1083,520
1084,519
1085,520
1086,506
1087,497
1088,495
1089,485
1090,487
1091,500
1092,503
1093,500
1094,498
1095,507
1096,516
1097,539
1098,555
1099,553
1100,557
1101,557
1102,555
1103,527
1104,515
1105,516
1106,520
1107,528
1108,550
1109,558
1110,559
1111,547
1112,531
1113,513
1114,494
1115,500
1116,512
1117,531
1118,546
1119,524
1120,514
1121,514
1122,518
1123,511
1124,500
1125,509
1126,508
1127,486
1128,459
1129,454
1130,466
1131,490
1132,513
1133,530
1134,542
1135,561
1136,575
1137,573
1138,554
1139,514
1140,474
1141,464
1142,466
1143,472
1144,465
1145,459
1146,463
1147,467
1148,475
1149,472
1150,460
1151,460
1152,463
1153,470
1154,482
1155,502
1156,516
1157,513
1158,517
1159,516
1160,525
1161,532
1162,523
1163,515
1164,519
1165,517
1166,522
1167,497
1168,468
1169,460
1170,458
1171,452
1172,440
1173,435
1174,444
1175,456
1176,470
1177,478
1178,465
1179,472
1180,492
1181,497
1182,495
1183,507
1184,528
1185,544
1186,554
1187,546
1188,527
1189,516
1190,509
1191,498
1192,456
1193,405
1194,370
1195,374
1196,387
1197,382
1198,390
1199,405
1200,432
1201,466
1202,493
1203,518
1204,512
1205,508
1206,515
1207,487
1208,473
1209,465
1210,465
1211,479
1212,494
1213,485
1214,470
1215,470
1216,479
1217,472
1218,467
1219,469
1220,472
1221,481
1222,475
1223,479
1224,490
1225,496
1226,504
1227,507
1228,519
1229,526
1230,530
1231,527
1232,532
1233,532
1234,523
1235,531
1236,522
1237,517
1238,514
1239,508
1240,521
1241,544
1242,570
1243,583
1244,592
1245,600
1246,606
1247,604
1248,586
1249,565
1250,560
1251,560
1252,565
1253,558
1254,543
1255,533
1256,527
1257,504
1258,481
1259,475
1260,477
1261,487
1262,492
1263,497
1264,498
1265,507
1266,519
1267,526
1268,540
1269,530
1270,504
1271,493
1272,485
1273,492
1274,502
1275,526
1276,550
1277,557
1278,553
1279,543
1280,551
1281,557
1282,559
1283,572
1284,574
1285,567
1286,548
1287,520
1288,512
1289,508
1290,492
1291,488
1292,484
1293,488
1294,489
1295,496
1296,499
1297,515
1298,522
1299,518
1300,527
1301,536
1302,550
1303,553
1304,551
1305,545
1306,535
1307,542
1308,551
1309,551
1310,553
1311,555
1312,558
1313,558
1314,547
1315,539
1316,540
1317,543
1318,537
1319,527
1320,519
1321,507
1322,494
1323,479
1324,463
1325,474
1326,492
1327,503
1328,521
1329,523
1330,519
1331,506
1332,496
1333,467
1334,459
1335,464
1336,466
1337,469
1338,486
1339,500
1340,505
1341,496
1342,479
1343,471
1344,465
1345,462
1346,467
1347,478
1348,463
1349,445
1350,452
1351,465
1352,472
1353,487
1354,502
1355,500
1356,503
1357,499
1358,492
1359,480
1360,479
1361,489
1362,489
1363,483
1364,481
1365,484
1366,493
1367,516
1368,534
1369,539
1370,531
1371,530
1372,523
1373,532
1374,522
1375,514
1376,507
1377,492
1378,487
1379,472
1380,458
1381,449
1382,444
1383,448
1384,461
1385,479
1386,501
1387,518
1388,525
1389,524
1390,526
1391,531
1392,520
1393,513
1394,513
1395,531
1396,553
1397,551
1398,523
1399,496
1400,486
1401,481
1402,485
1403,492
1404,488
1405,496
1406,487
1407,466
1408,460
1409,455
1410,459
1411,480
1412,498
1413,519
1414,514
1415,510
1416,502
1417,492
1418,494
1419,490
1420,477
1421,481
1422,492
1423,509
1424,514
1425,518
1426,519
1427,526
1428,533
1429,536
1430,532
1431,548
1432,558
1433,558
1434,532
1435,510
1436,488
1437,476
1438,484
1439,491
1440,498
1441,492
1442,488
1443,482
1444,475
1445,475
1446,480
1447,485
1448,491
1449,480
1450,475
1451,483
1452,486
1453,490
1454,483
1455,487
1456,494
1457,486
1458,486
1459,482
1460,490
1461,492
1462,488
1463,486
1464,483
1465,493
1466,505
1467,514
1468,528
1469,529
1470,527
1471,524
1472,525
1473,523
1474,512
1475,504
1476,507
1477,508
1478,523
1479,533
1480,547
1481,563
1482,559
1483,557
1484,555
1485,553
1486,558
1487,542
1488,523
1489,512
1490,520
1491,537
1492,508
1493,504
1494,498
1495,471
1496,454
1497,450
1498,465
1499,478
1500,484
1501,495
1502,492
1503,488
1504,490
1505,504
1506,522
1507,531
1508,529
1509,522
1510,524
1511,531
1512,538
1513,541
1514,529
1515,522
1516,519
1517,517
1518,519
1519,522
1520,532
1521,536
1522,531
1523,538
1524,549
1525,536
1526,536
1527,541
1528,552
1529,539
1530,526
1531,506
1532,489
1533,479
1534,478
1535,483
1536,467
1537,452
1538,449
1539,448
1540,457
1541,455
1542,459
1543,479
1544,489
1545,482
1546,491
1547,493
1548,497
1549,489
1550,493
1551,498
1552,500
1553,519
1554,529
1555,548
1556,560
1557,555
1558,554
1559,548
1560,544
1561,543
1562,543
1563,540
1564,537
1565,546
1566,540
1567,531
1568,528
1569,538
1570,553
1571,573
1572,580
1573,593
1574,567
1575,561
1576,559
1577,553
1578,562
1579,568
1580,554
1581,549
1582,541
1583,531
1584,505
1585,483
1586,472
1587,455
1588,450
1589,463
1590,485
1591,494
1592,495
1593,509
1594,517
1595,526
1596,529
1597,521
1598,515
1599,507
1600,512
1601,534
1602,548
1603,551
1604,546
1605,556
1606,542
1607,515
1608,479
1609,454
1610,448
1611,455
1612,466
1613,492
1614,499
1615,506
1616,512
1617,509
1618,512
1619,508
1620,502
1621,498
1622,480
1623,473
1624,470
1625,463
1626,465
1627,471
1628,481
1629,494
1630,512
1631,522
1632,504
1633,491
1634,481
1635,488
1636,505
1637,520
1638,516
1639,500
1640,508
1641,522
1642,527
1643,535
1644,537
1645,523
1646,503
1647,479
1648,467
1649,468
1650,476
1651,486
1652,498
1653,495
1654,493
1655,487
1656,481
1657,467
1658,459
1659,453
1660,467
1661,484
1662,491
1663,492
1664,495
1665,515
1666,527
1667,523
1668,516
1669,519
1670,529
1671,537
1672,531
1673,532
1674,521
1675,531
1676,542
1677,528
1678,530
1679,535
1680,557
1681,570
1682,560
1683,547
1684,531
1685,537
1686,526
1687,502
1688,479
1689,455
1690,443
1691,446
1692,452
1693,455
1694,457
1695,477
1696,507
1697,527
1698,541
1699,550
1700,563
1701,577
1702,569
1703,563
1704,557
1705,544
1706,542
1707,518
1708,498
1709,503
1710,522
1711,524
1712,524
1713,526
1714,514
1715,511
1716,511
1717,511
1718,511
1719,503
1720,496
1721,484
1722,481
1723,472
1724,463
1725,478
1726,497
1727,480
1728,480
1729,472
1730,462
1731,475
1732,488
1733,502
1734,518
1735,539
1736,559
1737,560
1738,568
1739,576
1740,585
1741,589
1742,576
1743,562
1744,548
1745,551
1746,562
1747,564
1748,558
1749,551
1750,551
1751,554
1752,545
1753,534
1754,521
1755,518
1756,517
1757,516
1758,519
1759,529
1760,547
1761,556
1762,559
1763,559
1764,558
1765,560
1766,560
1767,562
1768,573
1769,565
1770,556
1771,564
1772,579
1773,587
1774,587
1775,586
1776,575
1777,545
1778,514
1779,496
1780,500
1781,513
1782,511
1783,504
1784,500
1785,511
1786,527
1787,529
1788,535
1789,540
1790,552
1791,563
1792,552
1793,523
1794,499
1795,488
1796,474
1797,456
1798,454
1799,440
1800,434
1801,445
1802,446
1803,441
1804,444
1805,458
1806,458
1807,445
1808,444
1809,439
1810,441
1811,447
1812,453
1813,471
1814,497
1815,527
1816,538
1817,519
1818,510
1819,515
1820,498
1821,505
1822,507
1823,501
1824,493
1825,504
1826,497
1827,485
1828,482
1829,484
1830,487
1831,495
1832,481
1833,478
1834,477
1835,484
1836,496
1837,506
1838,505
1839,482
1840,486
1841,506
1842,513
1843,514
1844,499
1845,488
1846,486
1847,497
1848,499
1849,507
1850,503
1851,494
1852,495
1853,491
1854,483
1855,484
1856,493
1857,512
1858,527
1859,532
1860,529
1861,519
1862,528
1863,545
1864,556
1865,563
1866,574
1867,571
1868,566
1869,548
1870,533
1871,514
1872,505
1873,506
1874,499
1875,501
1876,498
1877,488
1878,483
1879,479
1880,489
1881,505
1882,507
1883,507
1884,491
1885,478
1886,468
1887,449
1888,453
1889,466
1890,483
1891,511
1892,531
1893,548
1894,540
1895,524
1896,509
1897,492
1898,488
1899,495
1900,497
1901,504
1902,505
1903,511
1904,524
1905,540
1906,561
1907,557
1908,551
1909,543
1910,539
1911,540
1912,533
1913,528
1914,508
1915,483
1916,479
1917,457
1918,444
1919,431
1920,436
1921,458
1922,463
1923,456
1924,460
1925,476
1926,487
1927,480
1928,474
1929,463
1930,459
1931,470
1932,485
1933,512
1934,533
1935,552
1936,560
1937,572
1938,568
1939,562
1940,557
1941,560
1942,558
1943,554
1944,536
1945,527
1946,526
1947,527
1948,527
1949,510
1950,502
1951,507
1952,520
1953,547
1954,572
1955,584
1956,588
1957,582
1958,583
1959,577
1960,581
1961,579
1962,559
1963,547
1964,531
1965,523
1966,508
1967,505
1968,519
1969,532
1970,527
1971,510
1972,512
1973,512
1974,513
1975,523
1976,527
1977,529
1978,515
1979,502
1980,494
1981,492
1982,509
1983,522
1984,518
1985,511
1986,509
1987,517
1988,500
1989,467
1990,449
1991,445
1992,436
1993,426
1994,418
1995,429
1996,455
1997,479
1998,508
1999,530
