timestamp,signal
0,556
1,564
2,548
3,523
4,523
5,530
6,533
7,532
8,516
9,514
10,531
11,533
12,542
13,553
14,563
15,573
16,577
17,571
18,552
19,546
20,549
21,542
22,535
23,511
24,500
25,498
26,497
27,506
28,497
29,495
30,488
31,467
32,455
33,440
34,441
35,452
36,469
37,487
38,491
39,516
40,542
41,534
42,540
43,536
44,542
45,538
46,526
47,532
48,525
49,522
50,536
51,544
52,546
53,535
54,541
55,546
56,542
57,547
58,529
59,524
60,526
61,525
62,534
63,542
64,544
65,537
66,536
67,539
68,529
69,529
70,528
71,530
72,526
73,511
74,488
75,466
76,461
77,466
78,455
79,463
80,482
81,493
82,508
83,512
84,527
85,540
86,539
87,543
88,532
89,537
90,531
91,511
92,506
93,489
94,504
95,491
96,487
97,499
98,508
99,537
100,556
101,562
102,563
103,559
104,555
105,563
106,552
107,553
108,540
109,543
110,556
111,564
112,573
113,561
114,544
115,518
116,517
117,508
118,492
119,472
120,455
121,462
122,457
123,443
124,441
125,452
126,479
127,498
128,501
129,507
130,507
131,499
132,512
133,516
134,529
135,522
136,522
137,530
138,517
139,501
140,482
141,471
142,477
143,474
144,496
145,507
146,506
147,520
148,527
149,537
150,533
151,522
152,510
153,496
154,497
155,505
156,510
157,505
158,489
159,498
160,510
161,488
162,488
163,474
164,478
165,491
166,510
167,518
168,511
169,511
170,512
171,509
172,512
173,514
174,519
175,531
176,540
177,543
178,547
179,545
180,535
181,529
182,513
183,491
184,483
185,491
186,504
187,493
188,468
189,450
190,455
191,488
192,504
193,500
194,501
195,504
196,519
197,545
198,561
199,580
200,578
201,560
202,535
203,507
204,512
205,524
206,524
207,537
208,545
209,560
210,573
211,578
212,585
213,591
214,605
215,604
216,582
217,565
218,558
219,556
220,553
221,542
222,536
223,524
224,526
225,536
226,544
227,552
228,542
229,549
230,540
231,534
232,537
233,525
234,534
235,544
236,545
237,544
238,496
239,483
240,476
241,470
242,484
243,483
244,499
245,507
246,514
247,524
248,514
249,512
250,516
251,508
252,507
253,495
254,492
255,492
256,486
257,483
258,486
259,505
260,514
261,504
262,497
263,480
264,491
265,510
266,524
267,526
268,513
269,528
270,542
271,542
272,543
273,535
274,521
275,518
276,516
277,529
278,527
279,523
280,528
281,514
282,502
283,497
284,516
285,537
286,549
287,555
288,539
289,530
290,520
291,513
292,503
293,484
294,491
295,499
296,508
297,515
298,512
299,503
300,496
301,505
302,506
303,493
304,475
305,475
306,483
307,473
308,459
309,450
310,453
311,469
312,498
313,514
314,536
315,544
316,555
317,566
318,572
319,587
320,600
321,605
322,606
323,595
324,598
325,588
326,564
327,542
328,514
329,506
330,497
331,495
332,510
333,523
334,546
335,556
336,554
337,536
338,510
339,509
340,496
341,479
342,473
343,457
344,469
345,487
346,501
347,518
348,516
349,532
350,530
351,518
352,519
353,516
354,532
355,547
356,555
357,550
358,534
359,541
360,558
361,560
362,571
363,566
364,558
365,549
366,546
367,535
368,517
369,487
370,464
371,471
372,458
373,439
374,424
375,418
376,423
377,432
378,433
379,427
380,429
381,436
382,444
383,439
384,452
385,465
386,468
387,467
388,446
389,423
390,403
391,405
392,428
393,439
394,450
395,455
396,427
397,425
398,409
399,416
400,412
401,405
402,406
403,394
404,409
405,428
406,441
407,457
408,466
409,479
410,495
411,500
412,501
413,484
414,477
415,475
416,477
417,490
418,486
419,485
420,489
421,490
422,468
423,429
424,410
425,408
426,416
427,430
428,444
429,461
430,487
431,499
432,486
433,467
434,435
435,405
436,399
437,387
438,358
439,339
440,332
441,358
442,380
443,378
444,377
445,380
446,396
447,429
448,442
449,452
450,468
451,492
452,516
453,513
454,513
455,522
456,533
457,550
458,547
459,559
460,573
461,579
462,589
463,573
464,572
465,569
466,558
467,551
468,549
469,561
470,571
471,569
472,562
473,536
474,524
475,524
476,533
477,526
478,504
479,492
480,478
481,457
482,442
483,430
484,442
485,470
486,498
487,512
488,514
489,511
490,515
491,541
492,559
493,556
494,558
495,560
496,571
497,562
498,547
499,542
500,531
501,519
502,512
503,496
504,486
505,494
506,520
507,541
508,552
509,557
510,558
511,555
512,539
513,516
514,502
515,496
516,497
517,489
518,466
519,459
520,476
521,507
522,508
523,495
524,499
525,508
526,529
527,535
528,523
529,517
530,505
531,513
532,505
533,482
534,463
535,462
536,470
537,463
538,453
539,454
540,465
541,470
542,475
543,491
544,511
545,528
546,535
547,544
548,543
549,532
550,519
551,514
552,520
553,505
554,512
555,529
556,545
557,560
558,558
559,568
560,575
561,575
562,563
563,551
564,555
565,561
566,559
567,550
568,543
569,563
570,568
571,551
572,545
573,525
574,520
575,521
576,536
577,539
578,522
579,525
580,533
581,532
582,527
583,520
584,542
585,558
586,569
587,575
588,555
589,539
590,531
591,526
592,547
593,551
594,557
595,552
596,543
597,524
598,489
599,481
600,480
601,480
602,484
603,467
604,462
605,463
606,466
607,480
608,483
609,494
610,504
611,513
612,532
613,520
614,518
615,523
616,522
617,529
618,522
619,529
620,541
621,541
622,528
623,510
624,496
625,499
626,500
627,504
628,479
629,480
630,480
631,480
632,487
633,494
634,504
635,507
636,518
637,507
638,514
639,534
640,546
641,542
642,549
643,537
644,534
645,531
646,518
647,513
648,500
649,500
650,501
651,492
652,494
653,488
654,491
655,499
656,500
657,493
658,468
659,451
660,455
661,459
662,467
663,468
664,489
665,511
666,533
667,556
668,554
669,539
670,513
671,500
672,509
673,523
674,545
675,567
676,589
677,593
678,586
679,573
680,556
681,555
682,555
683,534
684,528
685,530
686,547
687,568
688,564
689,558
690,565
691,575
692,575
693,553
694,540
695,523
696,502
697,499
698,486
699,487
700,498
701,499
702,496
703,495
704,519
705,538
706,560
707,570
708,557
709,541
710,526
711,518
712,520
713,509
714,510
715,519
716,509
717,495
718,476
719,480
720,491
721,484
722,474
723,465
724,480
725,498
726,515
727,499
728,490
729,493
730,500
731,499
732,503
733,508
734,512
735,512
736,505
737,502
738,499
739,509
740,527
741,528
742,523
743,514
744,524
745,510
746,505
747,495
748,465
749,463
750,467
751,455
752,454
753,456
754,474
755,493
756,511
757,534
758,544
759,566
760,581
761,579
762,579
763,551
764,534
765,537
766,540
767,544
768,529
769,527
770,530
771,527
772,544
773,535
774,524
775,506
776,508
777,496
778,473
779,471
780,483
781,499
782,509
783,520
784,524
785,517
786,514
787,497
788,470
789,456
790,450
791,468
792,504
793,528
794,544
795,533
796,514
797,513
798,512
799,515
800,496
801,483
802,491
803,496
804,519
805,525
806,528
807,543
808,533
809,523
810,514
811,495
812,494
813,483
814,487
815,496
816,503
817,512
818,514
819,519
820,521
821,536
822,540
823,532
824,526
825,526
826,522
827,507
828,499
829,505
830,514
831,520
832,510
833,502
834,492
835,488
836,497
837,503
838,497
839,508
840,517
841,493
842,462
843,429
844,419
845,426
846,444
847,464
848,473
849,486
850,485
851,464
852,449
853,436
854,430
855,442
856,451
857,466
858,471
859,485
860,508
861,528
862,543
863,540
864,564
865,562
866,546
867,534
868,502
869,487
870,479
871,459
872,456
873,447
874,451
875,465
876,477
877,477
878,461
879,445
880,441
881,462
882,465
883,453
884,450
885,452
886,470
887,480
888,489
889,508
890,527
891,536
892,529
893,517
894,520
895,530
896,514
897,495
898,473
899,480
900,497
901,505
902,510
903,503
904,514
905,528
906,544
907,564
908,566
909,575
910,577
911,568
912,568
913,548
914,531
915,523
916,523
917,534
918,534
919,549
920,553
921,550
922,554
923,542
924,530
925,521
926,517
927,528
928,536
929,542
930,538
931,533
932,528
933,511
934,499
935,489
936,489
937,498
938,481
939,483
940,469
941,457
942,462
943,455
944,468
945,482
946,493
947,516
948,502
949,512
950,530
951,539
952,543
953,531
954,519
955,514
956,516
957,530
958,539
959,560
960,560
961,542
962,545
963,541
964,542
965,547
966,556
967,553
968,549
969,555
970,540
971,551
972,558
973,550
974,534
975,516
976,504
977,500
978,489
979,475
980,468
981,472
982,481
983,487
984,513
985,542
986,560
987,578
988,583
989,584
990,571
991,553
992,543
993,519
994,510
995,498
996,498
997,511
998,521
999,538
1000,531
1001,531
1002,539
1003,528
1004,529
1005,533
1006,512
1007,498
1008,487
1009,495
1010,512
1011,523
1012,531
1013,531
1014,541
1015,540
1016,526
1017,513
1018,502
1019,512
1020,511
1021,518
1022,538
1023,544
1024,556
1025,570
1026,560
1027,551
1028,540
1029,551
1030,555
1031,549
1032,548
1033,528
1034,519
1035,497
1036,480
1037,480
1038,480
1039,486
1040,486
1041,477
1042,485
1043,499
1044,519
1045,525
1046,510
1047,494
1048,481
1049,487
1050,499
1051,489
1052,476
1053,449
1054,450
1055,470
1056,480
1057,499
1058,505
1059,519
1060,515
1061,493
1062,480
1063,467
1064,472
1065,481
1066,463
1067,446
1068,434
1069,443
1070,460
1071,464
1072,480
1073,485
1074,500
1075,515
1076,496
1077,492
1078,487
1079,508
1080,524
1081,517
1082,511
1083,499
1084,491
1085,500
1086,512
1087,520
1088,510
1089,499
1090,499
1091,498
1092,499
1093,490
1094,492
1095,493
1096,478
1097,502
1098,512
1099,523
1100,526
1101,530
1102,537
1103,528
1104,531
1105,547
1106,529
1107,526
1108,516
1109,526
1110,534
1111,543
1112,556
1113,545
1114,547
1115,539
1116,513
1117,487
1118,458
1119,454
1120,467
1121,483
1122,496
1123,503
1124,517
1125,539
1126,534
1127,532
1128,534
1129,528
1130,507
1131,468
1132,447
1133,423
1134,441
1135,454
1136,445
1137,451
1138,458
1139,459
1140,458
1141,455
1142,463
1143,465
1144,470
1145,475
1146,483
1147,505
1148,505
1149,513
1150,504
1151,491
1152,498
1153,485
1154,480
1155,475
1156,477
1157,490
1158,483
1159,482
1160,479
1161,483
1162,497
1163,502
1164,523
1165,538
1166,555
1167,565
1168,563
1169,561
1170,557
1171,556
1172,563
1173,564
1174,583
1175,587
1176,572
1177,561
1178,556
1179,575
1180,574
1181,560
1182,544
1183,535
1184,549
1185,564
1186,557
1187,542
1188,518
1189,508
1190,504
1191,497
1192,504
1193,503
1194,515
1195,529
1196,530
1197,536
1198,524
1199,528
1200,532
1201,516
1202,514
1203,506
1204,513
1205,513
1206,504
1207,509
1208,502
1209,501
1210,481
1211,476
1212,470
1213,485
1214,512
1215,525
1216,520
1217,527
1218,542
1219,571
1220,576
1221,597
1222,609
1223,601
1224,577
1225,552
1226,511
1227,484
1228,483
1229,493
1230,513
1231,520
1232,531
1233,525
1234,503
1235,487
1236,473
1237,475
1238,478
1239,507
1240,528
1241,550
1242,555
1243,547
1244,561
1245,569
1246,566
1247,566
1248,549
1249,530
1250,524
1251,503
1252,494
1253,488
1254,494
1255,473
1256,437
1257,436
1258,451
1259,488
1260,517
1261,536
1262,547
1263,532
1264,538
1265,551
1266,532
1267,506
1268,499
1269,515
1270,528
1271,523
1272,521
1273,518
1274,499
1275,484
1276,491
1277,484
1278,469
1279,472
1280,481
1281,482
1282,485
1283,497
1284,515
1285,515
1286,478
1287,451
1288,439
1289,435
1290,441
1291,430
1292,433
1293,432
1294,424
1295,427
1296,401
1297,392
1298,406
1299,443
1300,479
1301,497
1302,505
1303,494
1304,506
1305,512
1306,488
1307,462
1308,448
1309,467
1310,487
1311,476
1312,456
1313,440
1314,436
1315,452
1316,462
1317,468
1318,468
1319,454
1320,462
1321,471
1322,481
1323,485
1324,500
1325,514
1326,525
1327,515
1328,510
1329,512
1330,509
1331,472
1332,446
1333,438
1334,441
1335,451
1336,477
1337,486
1338,470
1339,466
1340,470
1341,476
1342,482
1343,471
1344,479
1345,499
1346,508
1347,508
1348,497
1349,497
1350,506
1351,508
1352,512
1353,506
1354,511
1355,517
1356,507
1357,480
1358,444
1359,445
1360,463
1361,480
1362,508
1363,510
1364,519
1365,531
1366,533
1367,541
1368,542
1369,552
1370,555
1371,542
1372,536
1373,523
1374,527
1375,519
1376,503
1377,510
1378,519
1379,536
1380,539
1381,537
1382,524
1383,512
1384,515
1385,512
1386,526
1387,554
1388,570
1389,569
1390,563
1391,553
1392,542
1393,529
1394,529
1395,524
1396,511
1397,513
1398,513
1399,538
1400,559
1401,537
1402,496
1403,455
1404,447
1405,451
1406,480
1407,518
1408,542
1409,553
1410,561
1411,568
1412,551
1413,526
1414,500
1415,483
1416,489
1417,500
1418,497
1419,509
1420,515
1421,498
1422,481
1423,471
1424,482
1425,503
1426,510
1427,524
1428,531
1429,524
1430,542
1431,558
1432,566
1433,557
1434,547
1435,533
1436,528
1437,537
1438,510
1439,511
1440,528
1441,543
1442,553
1443,537
1444,521
1445,519
1446,517
1447,519
1448,527
1449,524
1450,504
1451,473
1452,473
1453,478
1454,495
1455,506
1456,508
1457,517
1458,515
1459,520
1460,535
1461,547
1462,543
1463,532
1464,547
1465,563
1466,567
1467,553
1468,532
1469,532
1470,538
1471,508
1472,493
1473,485
1474,505
1475,529
1476,528
1477,521
1478,519
1479,533
1480,545
1481,538
1482,533
1483,539
1484,561
1485,572
1486,569
1487,553
1488,538
1489,527
1490,513
1491,523
1492,543
1493,560
1494,565
1495,558
1496,550
1497,536
1498,504
1499,497
1500,502
1501,506
1502,508
1503,500
1504,505
1505,513
1506,514
1507,508
1508,496
1509,501
1510,496
1511,489
1512,487
1513,479
1514,487
1515,490
1516,481
1517,471
1518,448
1519,455
1520,468
1521,464
1522,468
1523,468
1524,478
1525,482
1526,485
1527,492
1528,494
1529,511
1530,508
1531,519
1532,540
1533,543
1534,556
1535,560
1536,553
1537,547
1538,528
1539,525
1540,536
1541,541
1542,544
1543,529
1544,529
1545,534
1546,525
1547,516
1548,496
1549,501
1550,495
1551,475
1552,477
1553,474
1554,481
1555,492
1556,494
1557,497
1558,485
1559,495
1560,511
1561,524
1562,539
1563,542
1564,557
1565,545
1566,538
1567,540
1568,534
1569,545
1570,559
1571,559
1572,555
1573,541
1574,524
1575,506
1576,485
1577,482
1578,484
1579,502
1580,519
1581,522
1582,528
1583,533
1584,558
1585,580
1586,584
1587,592
1588,583
1589,572
1590,550
1591,530
1592,509
1593,493
1594,490
1595,494
1596,488
1597,483
1598,479
1599,490
1600,496
1601,496
1602,496
1603,467
1604,475
1605,487
1606,483
1607,493
1608,502
1609,511
1610,518
1611,513
1612,498
1613,475
1614,482
1615,486
1616,493
1617,509
1618,518
1619,532
1620,542
1621,542
1622,549
1623,540
1624,553
1625,573
1626,572
1627,561
1628,547
1629,540
1630,528
1631,523
1632,532
1633,529
1634,516
1635,493
1636,483
1637,470
1638,448
1639,431
1640,439
1641,456
1642,460
1643,440
1644,422
1645,428
1646,448
1647,474
1648,496
1649,526
1650,545
1651,539
1652,543
1653,540
1654,557
1655,554
1656,539
1657,530
1658,513
1659,516
1660,514
1661,495
1662,493
1663,499
1664,524
1665,548
1666,561
1667,569
1668,555
1669,543
1670,523
1671,515
1672,521
1673,516
1674,519
1675,528
1676,526
1677,528
1678,513
1679,520
1680,522
1681,517
1682,509
1683,486
1684,478
1685,495
1686,512
1687,523
1688,499
1689,480
1690,475
1691,476
1692,471
1693,468
1694,481
1695,489
1696,492
1697,498
1698,512
1699,534
1700,543
1701,529
1702,507
1703,493
1704,502
1705,510
1706,506
1707,502
1708,520
1709,550
1710,572
1711,567
1712,555
1713,531
1714,516
1715,504
1716,501
1717,491
1718,491
1719,488
1720,480
1721,482
1722,479
1723,469
1724,470
1725,478
1726,486
1727,472
1728,454
1729,449
1730,465
1731,483
1732,489
1733,472
1734,467
1735,462
1736,455
1737,461
1738,466
1739,484
1740,504
1741,499
1742,501
1743,485
1744,502
1745,506
1746,491
1747,473
1748,454
1749,460
1750,475
1751,478
1752,491
1753,487
1754,504
1755,528
1756,547
1757,553
1758,532
1759,525
1760,528
1761,518
1762,512
1763,496
1764,483
1765,479
1766,476
1767,466
1768,466
1769,492
1770,516
1771,535
1772,557
1773,572
1774,561
1775,541
1776,526
1777,516
1778,513
1779,515
1780,515
1781,524
1782,538
1783,535
1784,526
1785,500
1786,481
1787,472
1788,454
1789,451
1790,465
1791,470
1792,469
1793,459
1794,464
1795,466
1796,473
1797,484
1798,484
1799,503
1800,519
1801,531
1802,551
1803,569
1804,591
1805,595
1806,586
1807,576
1808,567
1809,548
1810,555
1811,552
1812,548
1813,537
1814,540
1815,536
1816,519
1817,513
1818,503
1819,487
1820,491
1821,489
1822,508
1823,509
1824,520
1825,528
1826,515
1827,513
1828,525
1829,542
1830,532
1831,515
1832,513
1833,509
1834,519
1835,540
1836,550
1837,551
1838,539
1839,543
1840,536
1841,518
1842,505
1843,493
1844,508
1845,528
1846,542
1847,569
1848,575
1849,582
1850,579
1851,565
1852,537
1853,505
1854,498
1855,492
1856,477
1857,476
1858,468
1859,484
1860,503
1861,519
1862,539
1863,532
1864,530
1865,525
1866,526
1867,522
1868,508
1869,503
1870,520
1871,545
1872,569
1873,580
1874,578
1875,564
1876,566
1877,575
1878,558
1879,536
1880,528
1881,520
1882,526
1883,513
1884,499
1885,480
1886,460
1887,454
1888,443
1889,453
1890,463
1891,474
1892,480
1893,483
1894,487
1895,500
1896,523
1897,539
1898,531
1899,528
1900,533
1901,535
1902,553
1903,563
1904,571
1905,555
1906,538
1907,523
1908,508
1909,507
1910,495
1911,475
1912,475
1913,465
1914,462
1915,463
1916,459
1917,468
1918,472
1919,487
1920,504
1921,519
1922,528
1923,516
1924,519
1925,527
1926,518
1927,499
1928,456
1929,432
1930,434
1931,444
1932,477
1933,487
1934,495
1935,500
1936,492
1937,482
1938,457
1939,443
1940,447
1941,468
1942,475
1943,463
1944,469
1945,480
1946,479
1947,467
1948,452
1949,463
1950,473
1951,493
1952,510
1953,521
1954,531
1955,540
1956,520
1957,504
1958,492
1959,508
1960,536
1961,545
1962,543
1963,539
1964,537
1965,540
1966,538
1967,550
1968,556
1969,555
1970,537
1971,510
1972,495
1973,476
1974,474
1975,483
1976,491
1977,514
1978,535
1979,550
1980,560
1981,543
1982,522
1983,504
1984,522
1985,507
1986,498
1987,490
1988,473
1989,469
1990,470
1991,465
1992,465
1993,462
1994,473
1995,473
1996,472
1997,469
1998,471
1999,487
