timestamp,signal
0,526
1,549
2,554
3,557
4,551
5,543
6,528
7,528
8,525
9,501
10,483
11,475
12,492
13,498
14,492
15,487
16,486
17,487
18,477
19,480
20,476
21,474
22,472
23,485
24,478
25,471
26,476
27,490
28,521
29,526
30,529
31,505
32,483
33,463
34,421
35,402
36,416
37,442
38,474
39,495
40,528
41,556
42,561
43,558
44,540
45,536
46,528
47,509
48,487
49,465
50,473
51,465
52,459
53,456
54,450
55,463
56,467
57,458
58,454
59,459
60,451
61,470
62,473
63,470
64,474
65,503
66,520
67,524
68,537
69,536
70,548
71,561
72,570
73,572
74,563
75,563
76,566
77,561
78,557
79,557
80,564
81,567
82,562
83,542
84,506
85,478
86,455
87,443
88,455
89,469
90,486
91,504
92,515
93,524
94,514
95,502
96,486
97,471
98,466
99,461
100,467
101,483
102,484
103,481
104,467
105,461
106,465
107,451
108,439
109,439
110,455
111,481
112,503
113,525
114,525
115,530
116,539
117,555
118,577
119,560
120,572
121,588
122,583
123,558
124,522
125,494
126,491
127,504
128,509
129,513
130,523
131,536
132,547
133,563
134,567
135,570
136,572
137,579
138,572
139,544
140,529
141,520
142,521
143,529
144,532
145,545
146,552
147,553
148,546
149,529
150,513
151,510
152,517
153,517
154,519
155,519
156,515
157,515
158,534
159,536
160,540
161,543
162,540
163,531
164,508
165,490
166,481
167,472
168,480
169,472
170,467
171,467
172,467
173,476
174,472
175,486
176,492
177,498
178,515
179,516
180,509
181,511
182,503
183,511
184,497
185,510
186,521
187,519
188,515
189,512
190,526
191,533
192,521
193,515
194,497
195,491
196,493
197,479
198,464
199,453
200,469
201,494
202,508
203,529
204,523
205,523
206,514
207,511
208,508
209,487
210,474
211,470
212,475
213,502
214,514
215,533
216,548
217,546
218,546
219,530
220,531
221,549
222,569
223,573
224,563
225,547
226,524
227,521
228,528
229,522
230,509
231,491
232,493
233,499
234,482
235,478
236,472
237,467
238,470
239,463
240,454
241,458
242,477
243,495
244,493
245,504
246,514
247,519
248,521
249,508
250,508
251,522
252,525
253,523
254,502
255,500
256,510
257,511
258,513
259,508
260,508
261,518
262,529
263,532
264,522
265,516
266,520
267,507
268,498
269,477
270,473
271,474
272,467
273,472
274,482
275,496
276,508
277,499
278,487
279,479
280,480
281,497
282,497
283,493
284,483
285,481
286,469
287,479
288,496
289,499
290,508
291,520
292,530
293,533
294,523
295,524
296,529
297,525
298,537
299,540
300,537
301,532
302,513
303,514
304,515
305,513
306,513
307,514
308,509
309,496
310,499
311,493
312,482
313,491
314,501
315,513
316,516
317,493
318,475
319,472
320,493
321,521
322,532
323,524
324,524
325,540
326,542
327,532
328,523
329,519
330,531
331,529
332,510
333,504
334,498
335,500
336,513
337,528
338,540
339,543
340,557
341,575
342,571
343,556
344,551
345,555
346,530
347,501
348,475
349,463
350,468
351,461
352,448
353,451
354,448
355,460
356,480
357,490
358,506
359,509
360,524
361,536
362,541
363,551
364,537
365,530
366,507
367,478
368,475
369,476
370,479
371,493
372,495
373,504
374,518
375,506
376,483
377,483
378,487
379,480
380,485
381,498
382,509
383,504
384,504
385,498
386,473
387,466
388,462
389,451
390,462
391,484
392,496
393,513
394,512
395,520
396,530
397,531
398,532
399,530
400,551
401,560
402,560
403,565
404,548
405,536
406,526
407,515
408,508
409,484
410,466
411,456
412,441
413,440
414,424
415,435
416,451
417,468
418,487
419,500
420,519
421,539
422,549
423,566
424,579
425,589
426,597
427,572
428,565
429,560
430,565
431,572
432,551
433,532
434,526
435,526
436,524
437,507
438,499
439,492
440,502
441,513
442,501
443,477
444,437
445,410
446,406
447,422
448,424
449,413
450,412
451,422
452,438
453,467
454,483
455,511
456,532
457,532
458,537
459,536
460,546
461,553
462,567
463,579
464,568
465,553
466,547
467,548
468,549
469,534
470,535
471,541
472,540
473,547
474,544
475,544
476,547
477,533
478,525
479,511
480,519
481,540
482,537
483,524
484,507
485,509
486,524
487,521
488,520
489,498
490,491
491,486
492,464
493,463
494,467
495,492
496,520
497,540
498,552
499,528
500,512
501,513
502,524
503,540
504,538
505,531
506,521
507,517
508,528
509,505
510,503
511,509
512,518
513,528
514,516
515,521
516,526
517,528
518,526
519,512
520,500
521,498
522,508
523,517
524,514
525,496
526,467
527,455
528,468
529,475
530,482
531,504
532,516
533,512
534,486
535,481
536,480
537,481
538,482
539,476
540,475
541,480
542,476
543,462
544,449
545,470
546,489
547,506
548,515
549,512
550,517
551,521
552,530
553,547
554,536
555,537
556,549
557,561
558,573
559,581
560,588
561,601
562,604
563,601
564,579
565,577
566,580
567,576
568,575
569,580
570,579
571,555
572,519
573,481
574,444
575,441
576,453
577,480
578,504
579,508
580,511
581,518
582,521
583,530
584,538
585,551
586,561
587,558
588,552
589,544
590,529
591,527
592,519
593,524
594,510
595,506
596,491
597,477
598,470
599,463
600,463
601,480
602,499
603,496
604,481
605,479
606,476
607,485
608,477
609,473
610,470
611,481
612,513
613,544
614,551
615,552
616,533
617,511
618,496
619,475
620,472
621,476
622,481
623,499
624,512
625,523
626,531
627,541
628,558
629,550
630,558
631,555
632,556
633,563
634,562
635,576
636,582
637,569
638,559
639,539
640,536
641,532
642,534
643,547
644,550
645,551
646,536
647,518
648,508
649,486
650,464
651,448
652,451
653,462
654,455
655,451
656,441
657,451
658,455
659,451
660,444
661,446
662,457
663,472
664,486
665,490
666,512
667,533
668,550
669,539
670,548
671,563
672,555
673,539
674,513
675,487
676,478
677,478
678,497
679,506
680,522
681,539
682,548
683,547
684,540
685,524
686,515
687,502
688,499
689,476
690,472
691,475
692,483
693,500
694,508
695,530
696,538
697,513
698,501
699,484
700,479
701,489
702,485
703,498
704,508
705,535
706,543
707,559
708,572
709,551
710,551
711,556
712,554
713,555
714,548
715,530
716,521
717,517
718,538
719,518
720,521
721,528
722,522
723,516
724,499
725,488
726,496
727,513
728,507
729,506
730,510
731,517
732,524
733,516
734,507
735,498
736,489
737,493
738,497
739,496
740,481
741,479
742,492
743,496
744,504
745,498
746,487
747,500
748,502
749,491
750,469
751,455
752,473
753,496
754,510
755,516
756,532
757,520
758,514
759,501
760,514
761,526
762,528
763,527
764,500
765,489
766,486
767,489
768,492
769,487
770,499
771,497
772,492
773,499
774,500
775,521
776,541
777,551
778,551
779,542
780,545
781,555
782,549
783,539
784,524
785,527
786,533
787,531
788,535
789,532
790,552
791,557
792,561
793,561
794,546
795,529
796,524
797,520
798,534
799,535
800,527
801,523
802,537
803,545
804,536
805,528
806,530
807,532
808,541
809,537
810,533
811,522
812,523
813,523
814,500
815,503
816,499
817,487
818,487
819,482
820,485
821,483
822,497
823,515
824,519
825,534
826,550
827,544
828,544
829,526
830,534
831,544
832,541
833,531
834,520
835,523
836,523
837,494
838,469
839,445
840,437
841,444
842,459
843,483
844,486
845,482
846,488
847,515
848,541
849,558
850,569
851,571
852,571
853,580
854,569
855,576
856,580
857,574
858,581
859,568
860,553
861,539
862,531
863,536
864,532
865,532
866,538
867,530
868,524
869,521
870,518
871,500
872,480
873,482
874,471
875,472
876,477
877,474
878,476
879,475
880,490
881,504
882,497
883,484
884,490
885,499
886,493
887,474
888,467
889,456
890,453
891,451
892,443
893,447
894,455
895,460
896,447
897,440
898,438
899,429
900,443
901,463
902,462
903,475
904,476
905,474
906,482
907,509
908,533
909,541
910,553
911,560
912,552
913,546
914,543
915,550
916,552
917,550
918,543
919,528
920,522
921,529
922,540
923,539
924,526
925,512
926,479
927,462
928,458
929,456
930,480
931,517
932,519
933,493
934,454
935,439
936,434
937,426
938,433
939,435
940,454
941,472
942,485
943,504
944,501
945,498
946,483
947,475
948,481
949,485
950,509
951,525
952,523
953,524
954,523
955,526
956,521
957,503
958,483
959,464
960,460
961,458
962,457
963,439
964,438
965,448
966,470
967,478
968,482
969,489
970,505
971,496
972,482
973,489
974,492
975,515
976,522
977,527
978,528
979,524
980,531
981,527
982,540
983,546
984,542
985,550
986,560
987,563
988,567
989,561
990,568
991,571
992,562
993,547
994,527
995,515
996,504
997,493
998,491
999,483
1000,502
1001,524
1002,534
1003,541
1004,542
1005,550
1006,548
1007,543
1008,536
1009,524
1010,525
1011,527
1012,525
1013,527
1014,517
1015,533
1016,552
1017,562
1018,563
1019,551
1020,544
1021,537
1022,531
1023,519
1024,504
1025,503
1026,500
1027,513
1028,512
1029,497
1030,476
1031,453
1032,463
1033,479
1034,471
1035,481
1036,482
1037,501
1038,509
1039,519
1040,526
1041,539
1042,524
1043,503
1044,483
1045,481
1046,475
1047,472
1048,483
1049,487
1050,501
1051,519
1052,526
1053,536
1054,519
1055,507
1056,501
1057,513
1058,535
1059,532
1060,527
1061,518
1062,505
1063,499
1064,478
1065,466
1066,465
1067,483
1068,502
1069,509
1070,505
1071,511
1072,504
1073,499
1074,490
1075,497
1076,508
1077,505
1078,505
1079,508
1080,519
1081,521
1082,514
1083,514
1084,509
1085,516
1086,524
1087,539
1088,550
1089,555
1090,571
1091,571
1092,554
1093,526
1094,497
1095,480
1096,468
1097,448
1098,444
1099,432
1100,432
1101,440
1102,461
1103,463
1104,463
1105,476
1106,498
1107,521
1108,546
1109,537
1110,543
1111,539
1112,531
1113,516
1114,491
1115,490
1116,488
1117,472
1118,459
1119,447
1120,451
1121,461
1122,463
1123,457
1124,449
1125,450
1126,457
1127,463
1128,468
1129,452
1130,446
1131,435
1132,422
1133,417
1134,423
1135,444
1136,463
1137,485
1138,501
1139,501
1140,505
1141,503
1142,508
1143,499
1144,497
1145,508
1146,524
1147,537
1148,550
1149,538
1150,534
1151,535
1152,544
1153,558
1154,548
1155,547
1156,553
1157,538
1158,549
1159,553
1160,548
1161,539
1162,537
1163,531
1164,512
1165,502
1166,509
1167,518
1168,512
1169,485
1170,459
1171,450
1172,464
1173,478
1174,491
1175,512
1176,514
1177,503
1178,481
1179,463
1180,473
1181,484
1182,485
1183,496
1184,499
1185,509
1186,518
1187,524
1188,532
1189,512
1190,509
1191,510
1192,500
1193,503
1194,497
1195,500
1196,502
1197,508
1198,518
1199,512
1200,522
1201,536
1202,546
1203,565
1204,575
1205,574
1206,570
1207,576
1208,592
1209,591
1210,573
1211,551
1212,544
1213,534
1214,522
1215,508
1216,498
1217,504
1218,512
1219,510
1220,520
1221,541
1222,556
1223,568
1224,563
1225,569
1226,570
1227,564
1228,559
1229,551
1230,561
1231,571
1232,564
1233,558
1234,537
1235,539
1236,542
1237,526
1238,512
1239,499
1240,504
1241,512
1242,519
1243,529
1244,497
1245,481
1246,466
1247,457
1248,462
1249,466
1250,477
1251,489
1252,496
1253,499
1254,496
1255,512
1256,518
1257,491
1258,467
1259,437
1260,439
1261,451
1262,467
1263,486
1264,494
1265,511
1266,517
1267,514
1268,506
1269,486
1270,478
1271,482
1272,494
1273,497
1274,497
1275,515
1276,529
1277,517
1278,504
1279,501
1280,514
1281,511
1282,493
1283,481
1284,461
1285,459
1286,452
1287,449
1288,469
1289,480
1290,520
1291,537
1292,537
1293,540
1294,540
1295,546
1296,546
1297,535
1298,536
1299,529
1300,537
1301,551
1302,558
1303,558
1304,552
1305,566
1306,564
1307,545
1308,538
1309,512
1310,494
1311,496
1312,506
1313,522
1314,517
1315,515
1316,516
1317,511
1318,521
1319,520
1320,535
1321,547
1322,532
1323,516
1324,504
1325,509
1326,516
1327,508
1328,502
1329,496
1330,501
1331,504
1332,499
1333,494
1334,466
1335,453
1336,448
1337,431
1338,421
1339,433
1340,454
1341,468
1342,459
1343,436
1344,415
1345,434
1346,472
1347,478
1348,492
1349,497
1350,490
1351,479
1352,490
1353,498
1354,489
1355,502
1356,500
1357,497
1358,495
1359,483
1360,477
1361,474
1362,495
1363,505
1364,501
1365,501
1366,508
1367,515
1368,527
1369,524
1370,531
1371,539
1372,535
1373,524
1374,505
1375,516
1376,533
1377,561
1378,556
1379,540
1380,535
1381,546
1382,534
1383,530
1384,525
1385,539
1386,560
1387,564
1388,579
1389,575
1390,577
1391,574
1392,547
1393,517
1394,496
1395,483
1396,467
1397,452
1398,439
1399,427
1400,438
1401,456
1402,456
1403,462
1404,458
1405,456
1406,460
1407,476
1408,488
1409,478
1410,480
1411,497
1412,507
1413,522
1414,521
1415,534
1416,543
1417,536
1418,523
1419,499
1420,503
1421,521
1422,530
1423,542
1424,545
1425,548
1426,539
1427,531
1428,541
1429,531
1430,522
1431,519
1432,499
1433,505
1434,495
1435,494
1436,488
1437,478
1438,483
1439,486
1440,505
1441,526
1442,521
1443,514
1444,513
1445,526
1446,538
1447,529
1448,523
1449,527
1450,556
1451,548
1452,532
1453,522
1454,505
1455,510
1456,515
1457,513
1458,520
1459,515
1460,520
1461,521
1462,520
1463,521
1464,517
1465,531
1466,551
1467,572
1468,582
1469,571
1470,571
1471,562
1472,538
1473,530
1474,523
1475,524
1476,526
1477,527
1478,525
1479,514
1480,512
1481,523
1482,531
1483,526
1484,520
1485,512
1486,489
1487,479
1488,476
1489,470
1490,478
1491,479
1492,454
1493,440
1494,443
1495,459
1496,483
1497,488
1498,492
1499,484
1500,496
1501,511
1502,526
1503,545
1504,542
1505,543
1506,543
1507,541
1508,547
1509,538
1510,538
1511,538
1512,535
1513,527
1514,506
1515,491
1516,486
1517,484
1518,488
1519,488
1520,503
1521,514
1522,505
1523,496
1524,502
1525,529
1526,531
1527,522
1528,500
1529,481
1530,483
1531,485
1532,475
1533,467
1534,446
1535,440
1536,436
1537,449
1538,476
1539,479
1540,486
1541,495
1542,501
1543,507
1544,515
1545,519
1546,535
1547,528
1548,530
1549,523
1550,531
1551,535
1552,531
1553,541
1554,528
1555,520
1556,522
1557,515
1558,512
1559,516
1560,505
1561,499
1562,504
1563,495
1564,484
1565,457
1566,451
1567,455
1568,458
1569,443
1570,428
1571,426
1572,443
1573,468
1574,473
1575,488
1576,477
1577,455
1578,432
1579,420
1580,429
1581,447
1582,464
1583,484
1584,488
1585,494
1586,506
1587,510
1588,521
1589,503
1590,493
1591,480
1592,474
1593,495
1594,505
1595,524
1596,553
1597,560
1598,561
1599,544
1600,550
1601,574
1602,580
1603,577
1604,565
1605,571
1606,574
1607,574
1608,577
1609,567
1610,564
1611,569
1612,570
1613,569
1614,549
1615,542
1616,543
1617,530
1618,531
1619,524
1620,524
1621,527
1622,529
1623,521
1624,501
1625,495
1626,502
1627,500
1628,505
1629,508
1630,515
1631,520
1632,526
1633,536
1634,522
1635,511
1636,505
1637,495
1638,492
1639,494
1640,505
1641,514
1642,509
1643,512
1644,502
1645,501
1646,504
1647,485
1648,487
1649,472
1650,475
1651,471
1652,470
1653,488
1654,491
1655,508
1656,519
1657,523
1658,514
1659,493
1660,496
1661,518
1662,533
1663,543
1664,527
1665,525
1666,534
1667,543
1668,543
1669,528
1670,533
1671,524
1672,494
1673,480
1674,476
1675,484
1676,485
1677,499
1678,527
1679,533
1680,546
1681,551
1682,557
1683,562
1684,532
1685,537
1686,529
1687,522
1688,516
1689,507
1690,496
1691,492
1692,496
1693,513
1694,520
1695,538
1696,537
1697,540
1698,524
1699,504
1700,491
1701,471
1702,470
1703,475
1704,480
1705,485
1706,497
1707,510
1708,525
1709,523
1710,517
1711,515
1712,514
1713,504
1714,487
1715,497
1716,513
1717,516
1718,540
1719,531
1720,540
1721,556
1722,574
1723,587
1724,588
1725,593
1726,583
1727,580
1728,564
1729,543
1730,534
1731,519
1732,503
1733,504
1734,493
1735,502
1736,503
1737,502
1738,513
1739,512
1740,517
1741,534
1742,534
1743,535
1744,532
1745,529
1746,532
1747,539
1748,547
1749,541
1750,544
1751,541
1752,537
1753,539
1754,532
1755,513
1756,497
1757,483
1758,474
1759,455
1760,428
1761,413
1762,427
1763,432
1764,425
1765,430
1766,435
1767,444
1768,450
1769,435
1770,421
1771,416
1772,435
1773,466
1774,460
1775,464
1776,470
1777,470
1778,478
1779,458
1780,469
1781,478
1782,484
1783,487
1784,470
1785,460
1786,456
1787,459
1788,480
1789,492
1790,515
1791,519
1792,513
1793,513
1794,515
1795,534
1796,554
1797,560
1798,547
1799,531
1800,516
1801,509
1802,512
1803,484
1804,452
1805,438
1806,440
1807,448
1808,454
1809,434
1810,438
1811,448
1812,457
1813,468
1814,464
1815,478
1816,492
1817,511
1818,526
1819,513
1820,501
1821,497
1822,492
1823,491
1824,475
1825,464
1826,466
1827,472
1828,487
1829,500
1830,520
1831,524
1832,519
1833,520
1834,512
1835,516
1836,533
1837,545
1838,544
1839,533
1840,532
1841,524
1842,508
1843,500
1844,496
1845,501
1846,504
1847,499
1848,494
1849,490
1850,503
1851,512
1852,510
1853,502
1854,485
1855,484
1856,487
1857,487
1858,501
1859,507
1860,516
1861,512
1862,514
1863,527
1864,533
1865,538
1866,537
1867,542
1868,562
1869,560
1870,546
1871,536
1872,539
1873,536
1874,518
1875,499
1876,488
1877,496
1878,486
1879,462
1880,435
1881,439
1882,438
1883,437
1884,440
1885,450
1886,465
1887,486
1888,508
1889,511
1890,527
1891,541
1892,542
1893,550
1894,550
1895,561
1896,572
1897,572
1898,588
1899,589
1900,587
1901,583
1902,569
1903,566
1904,567
1905,574
1906,569
1907,569
1908,577
1909,581
1910,594
1911,596
1912,578
1913,569
1914,546
1915,528
1916,516
1917,511
1918,505
1919,487
1920,490
1921,486
1922,476
1923,481
1924,493
1925,500
1926,512
1927,537
1928,543
1929,531
1930,520
1931,524
1932,540
1933,520
1934,496
1935,487
1936,479
1937,487
1938,499
1939,507
1940,523
1941,546
1942,520
1943,506
1944,477
1945,472
1946,474
1947,472
1948,478
1949,475
1950,485
1951,492
1952,510
1953,521
1954,534
1955,557
1956,564
1957,541
1958,517
1959,497
1960,501
1961,519
1962,515
1963,515
1964,509
1965,505
1966,505
1967,497
1968,494
1969,475
1970,468
1971,486
1972,503
1973,515
1974,497
1975,502
1976,506
1977,514
1978,525
1979,534
1980,533
1981,536
1982,523
1983,523
1984,514
1985,508
1986,511
1987,507
1988,493
1989,482
1990,479
1991,483
1992,500
1993,504
1994,490
1995,483
1996,488
1997,509
1998,523
1999,529
