timestamp,signal
0,515
1,498
2,483
3,465
4,447
5,414
6,388
7,368
8,367
9,380
10,393
11,406
12,435
13,471
14,485
15,498
16,510
17,506
18,492
19,464
20,435
21,415
22,396
23,384
24,400
25,409
26,431
27,468
28,507
29,529
30,529
31,529
32,539
33,550
34,553
35,547
36,549
37,548
38,561
39,545
40,544
41,555
42,569
43,577
44,575
45,562
46,556
47,556
48,552
49,537
50,508
51,477
52,467
53,471
54,467
55,472
56,495
57,508
58,515
59,521
60,533
61,551
62,574
63,585
64,564
65,529
66,510
67,508
68,513
69,517
70,512
71,497
72,486
73,478
74,487
75,501
76,513
77,524
78,535
79,544
80,557
81,571
82,579
83,588
84,592
85,583
86,574
87,572
88,557
89,545
90,551
91,560
92,560
93,562
94,568
95,570
96,568
97,555
98,541
99,548
100,546
101,540
102,540
103,534
104,527
105,519
106,514
107,521
108,524
109,518
110,504
111,487
112,482
113,490
114,487
115,476
116,477
117,483
118,501
119,518
120,523
121,522
122,510
123,500
124,490
125,475
126,473
127,466
128,455
129,445
130,424
131,415
132,422
133,427
134,429
135,435
136,466
137,498
138,507
139,509
140,514
141,525
142,525
143,520
144,517
145,511
146,508
147,498
148,487
149,479
150,479
151,492
152,508
153,516
154,532
155,540
156,552
157,564
158,567
159,561
160,543
161,538
162,540
163,538
164,521
165,496
166,491
167,494
168,495
169,498
170,496
171,504
172,515
173,521
174,531
175,532
176,526
177,512
178,483
179,465
180,457
181,465
182,475
183,488
184,494
185,493
186,503
187,512
188,504
189,494
190,489
191,492
192,499
193,510
194,492
195,479
196,482
197,493
198,516
199,505
200,504
201,510
202,515
203,502
204,486
205,468
206,473
207,492
208,521
209,545
210,561
211,590
212,606
213,611
214,618
215,622
216,629
217,623
218,612
219,602
220,591
221,581
222,569
223,555
224,539
225,525
226,519
227,523
228,524
229,527
230,518
231,517
232,510
233,505
234,508
235,511
236,492
237,472
238,473
239,472
240,466
241,456
242,455
243,465
244,471
245,478
246,489
247,499
248,496
249,487
250,472
251,464
252,460
253,466
254,454
255,443
256,444
257,460
258,477
259,478
260,467
261,473
262,484
263,506
264,515
265,510
266,506
267,501
268,500
269,483
270,466
271,464
272,465
273,471
274,464
275,457
276,459
277,457
278,464
279,464
280,464
281,466
282,472
283,472
284,490
285,504
286,521
287,526
288,521
289,508
290,487
291,481
292,472
293,471
294,482
295,483
296,492
297,499
298,514
299,532
300,534
301,522
302,503
303,488
304,446
305,408
306,399
307,396
308,418
309,423
310,422
311,433
312,447
313,458
314,474
315,488
316,505
317,519
318,516
319,499
320,476
321,470
322,469
323,461
324,443
325,434
326,435
327,450
328,475
329,493
330,514
331,537
332,553
333,579
334,572
335,556
336,551
337,553
338,559
339,541
340,505
341,478
342,457
343,443
344,446
345,448
346,462
347,483
348,509
349,526
350,531
351,537
352,536
353,521
354,512
355,500
356,496
357,499
358,505
359,515
360,522
361,532
362,537
363,550
364,563
365,558
366,551
367,544
368,540
369,520
370,512
371,496
372,499
373,500
374,491
375,488
376,489
377,507
378,527
379,539
380,548
381,539
382,500
383,481
384,471
385,473
386,496
387,517
388,540
389,533
390,513
391,499
392,487
393,490
394,486
395,479
396,496
397,504
398,509
399,510
400,515
401,534
402,558
403,559
404,567
405,562
406,561
407,555
408,547
409,532
410,519
411,525
412,544
413,563
414,552
415,532
416,537
417,545
418,557
419,540
420,528
421,516
422,512
423,506
424,500
425,496
426,500
427,511
428,527
429,553
430,574
431,586
432,595
433,592
434,584
435,578
436,578
437,576
438,562
439,555
440,550
441,538
442,521
443,505
444,510
445,518
446,523
447,521
448,511
449,498
450,484
451,486
452,493
453,493
454,476
455,467
456,485
457,513
458,509
459,508
460,504
461,507
462,511
463,508
464,508
465,499
466,501
467,499
468,487
469,477
470,473
471,476
472,484
473,502
474,509
475,505
476,500
477,492
478,482
479,462
480,446
481,437
482,447
483,453
484,468
485,475
486,485
487,502
488,521
489,529
490,514
491,501
492,507
493,512
494,494
495,480
496,480
497,487
498,489
499,482
500,481
501,497
502,525
503,548
504,556
505,554
506,555
507,552
508,549
509,543
510,539
511,538
512,535
513,519
514,508
515,494
516,489
517,471
518,455
519,454
520,466
521,483
522,494
523,498
524,507
525,512
526,521
527,523
528,508
529,506
530,509
531,508
532,510
533,508
534,505
535,495
536,495
537,501
538,512
539,518
540,512
541,508
542,509
543,521
544,527
545,538
546,545
547,545
548,548
549,548
550,543
551,536
552,529
553,530
554,536
555,539
556,548
557,551
558,540
559,535
560,531
561,521
562,525
563,528
564,536
565,550
566,568
567,579
568,577
569,569
570,560
571,560
572,566
573,577
574,577
575,553
576,534
577,513
578,496
579,478
580,467
581,477
582,486
583,488
584,471
585,452
586,439
587,438
588,444
589,443
590,443
591,451
592,465
593,487
594,509
595,520
596,544
597,568
598,581
599,563
600,552
601,550
602,548
603,557
604,533
605,495
606,477
607,467
608,469
609,460
610,460
611,464
612,478
613,493
614,504
615,497
616,488
617,489
618,499
619,509
620,508
621,526
622,536
623,531
624,514
625,483
626,458
627,456
628,479
629,514
630,519
631,528
632,534
633,538
634,538
635,523
636,520
637,523
638,530
639,528
640,517
641,521
642,523
643,523
644,519
645,525
646,540
647,546
648,550
649,538
650,515
651,510
652,521
653,530
654,524
655,509
656,498
657,487
658,477
659,476
660,479
661,480
662,498
663,492
664,486
665,472
666,472
667,487
668,508
669,519
670,512
671,503
672,502
673,507
674,515
675,519
676,524
677,528
678,527
679,532
680,542
681,559
682,574
683,564
684,556
685,566
686,591
687,602
688,586
689,581
690,565
691,551
692,536
693,545
694,570
695,579
696,588
697,568
698,546
699,551
700,552
701,557
702,560
703,561
704,558
705,546
706,540
707,539
708,536
709,527
710,515
711,504
712,496
713,490
714,483
715,482
716,492
717,508
718,515
719,507
720,503
721,512
722,515
723,514
724,527
725,531
726,542
727,557
728,568
729,561
730,549
731,528
732,502
733,482
734,469
735,463
736,467
737,477
738,480
739,473
740,462
741,460
742,463
743,447
744,450
745,459
746,466
747,481
748,492
749,507
750,506
751,511
752,519
753,531
754,539
755,525
756,527
757,535
758,532
759,512
760,484
761,475
762,476
763,492
764,497
765,479
766,480
767,483
768,477
769,460
770,448
771,447
772,445
773,470
774,484
775,497
776,523
777,539
778,534
779,540
780,551
781,563
782,562
783,549
784,540
785,544
786,528
787,529
788,521
789,513
790,498
791,490
792,477
793,458
794,452
795,450
796,445
797,441
798,440
799,433
800,419
801,417
802,425
803,445
804,466
805,475
806,486
807,486
808,477
809,487
810,497
811,511
812,529
813,544
814,566
815,575
816,585
817,591
818,600
819,597
820,579
821,575
822,570
823,550
824,538
825,531
826,534
827,537
828,529
829,516
830,497
831,489
832,499
833,513
834,508
835,492
836,489
837,498
838,497
839,488
840,487
841,488
842,498
843,498
844,471
845,443
846,432
847,424
848,425
849,429
850,445
851,476
852,499
853,500
854,508
855,526
856,540
857,556
858,563
859,559
860,555
861,560
862,566
863,572
864,577
865,583
866,593
867,590
868,589
869,597
870,594
871,584
872,562
873,540
874,522
875,512
876,511
877,515
878,533
879,528
880,521
881,521
882,519
883,519
884,508
885,493
886,481
887,476
888,465
889,445
890,425
891,419
892,427
893,455
894,474
895,496
896,504
897,513
898,527
899,517
900,510
901,508
902,508
903,513
904,504
905,485
906,469
907,456
908,447
909,457
910,462
911,480
912,484
913,488
914,505
915,507
916,499
917,495
918,471
919,463
920,463
921,465
922,460
923,438
924,424
925,416
926,413
927,422
928,436
929,454
930,474
931,497
932,521
933,534
934,525
935,506
936,499
937,500
938,497
939,494
940,480
941,475
942,476
943,478
944,482
945,470
946,470
947,474
948,479
949,474
950,475
951,483
952,497
953,505
954,512
955,523
956,535
957,544
958,557
959,540
960,511
961,495
962,495
963,489
964,475
965,467
966,484
967,507
968,522
969,515
970,504
971,510
972,526
973,529
974,527
975,528
976,521
977,505
978,496
979,498
980,504
981,522
982,556
983,568
984,579
985,588
986,595
987,591
988,589
989,590
990,586
991,580
992,581
993,560
994,563
995,559
996,555
997,547
998,547
999,537
1000,520
1001,509
1002,499
1003,499
1004,503
1005,500
1006,502
1007,505
1008,507
1009,508
1010,512
1011,535
1012,547
1013,541
1014,522
1015,473
1016,456
1017,456
1018,460
1019,455
1020,444
1021,454
1022,465
1023,478
1024,474
1025,467
1026,475
1027,492
1028,512
1029,511
1030,501
1031,499
1032,503
1033,498
1034,501
1035,511
1036,517
1037,515
1038,527
1039,524
1040,513
1041,502
1042,492
1043,494
1044,490
1045,496
1046,499
1047,500
1048,510
1049,511
1050,495
1051,484
1052,480
1053,482
1054,483
1055,468
1056,459
1057,455
1058,463
1059,473
1060,484
1061,506
1062,524
1063,531
1064,535
1065,537
1066,551
1067,557
1068,551
1069,542
1070,536
1071,550
1072,564
1073,577
1074,587
1075,593
1076,596
1077,591
1078,577
1079,586
1080,588
1081,582
1082,569
1083,555
1084,552
1085,559
1086,559
1087,562
1088,558
1089,551
1090,521
1091,492
1092,491
1093,495
1094,496
1095,501
1096,511
1097,505
1098,498
1099,498
1100,488
1101,504
1102,511
1103,516
1104,514
1105,502
1106,501
1107,496
1108,499
1109,492
1110,486
1111,487
1112,495
1113,497
1114,484
1115,456
1116,453
1117,460
1118,466
1119,460
1120,463
1121,478
1122,488
1123,509
1124,507
1125,489
1126,467
1127,444
1128,428
1129,425
1130,427
1131,442
1132,453
1133,461
1134,476
1135,498
1136,526
1137,537
1138,545
1139,549
1140,545
1141,543
1142,529
1143,516
1144,497
1145,476
1146,469
1147,467
1148,461
1149,455
1150,456
1151,470
1152,480
1153,484
1154,481
1155,452
1156,440
1157,437
1158,424
1159,425
1160,442
1161,460
1162,479
1163,480
1164,481
1165,495
1166,500
1167,508
1168,525
1169,544
1170,550
1171,565
1172,575
1173,553
1174,542
1175,530
1176,530
1177,532
1178,525
1179,524
1180,526
1181,532
1182,545
1183,549
1184,560
1185,557
1186,553
1187,553
1188,553
1189,558
1190,551
1191,540
1192,543
1193,556
1194,545
1195,520
1196,512
1197,514
1198,518
1199,530
1200,517
1201,512
1202,519
1203,525
1204,540
1205,549
1206,545
1207,551
1208,560
1209,566
1210,548
1211,530
1212,509
1213,497
1214,504
1215,510
1216,516
1217,519
1218,523
1219,543
1220,556
1221,563
1222,550
1223,516
1224,506
1225,502
1226,504
1227,505
1228,500
1229,501
1230,499
1231,501
1232,505
1233,493
1234,482
1235,473
1236,487
1237,513
1238,532
1239,526
1240,521
1241,523
1242,526
1243,522
1244,504
1245,489
1246,487
1247,497
1248,510
1249,507
1250,495
1251,497
1252,506
1253,521
1254,522
1255,516
1256,528
1257,538
1258,545
1259,546
1260,542
1261,541
1262,534
1263,523
1264,509
1265,505
1266,521
1267,547
1268,551
1269,540
1270,528
1271,526
1272,515
1273,512
1274,515
1275,522
1276,531
1277,526
1278,509
1279,494
1280,480
1281,486
1282,508
1283,525
1284,532
1285,538
1286,533
1287,523
1288,521
1289,509
1290,494
1291,501
1292,510
1293,527
1294,528
1295,517
1296,503
1297,499
1298,501
1299,524
1300,550
1301,565
1302,573
1303,576
1304,569
1305,555
1306,537
1307,518
1308,504
1309,492
1310,479
1311,482
1312,494
1313,505
1314,516
1315,518
1316,524
1317,547
1318,542
1319,534
1320,508
1321,485
1322,469
1323,469
1324,468
1325,463
1326,466
1327,470
1328,475
1329,487
1330,496
1331,480
1332,459
1333,451
1334,470
1335,488
1336,499
1337,507
1338,518
1339,525
1340,531
1341,547
1342,560
1343,562
1344,566
1345,562
1346,557
1347,556
1348,558
1349,564
1350,549
1351,547
1352,547
1353,530
1354,502
1355,479
1356,472
1357,468
1358,466
1359,452
1360,441
1361,443
1362,440
1363,435
1364,441
1365,448
1366,451
1367,445
1368,450
1369,452
1370,422
1371,415
1372,429
1373,445
1374,457
1375,466
1376,471
1377,471
1378,468
1379,457
1380,448
1381,453
1382,471
1383,486
1384,486
1385,476
1386,477
1387,473
1388,461
1389,460
1390,458
1391,463
1392,461
1393,471
1394,480
1395,479
1396,474
1397,473
1398,477
1399,481
1400,494
1401,497
1402,495
1403,472
1404,461
1405,461
1406,471
1407,478
1408,484
1409,478
1410,468
1411,467
1412,481
1413,506
1414,521
1415,520
1416,523
1417,527
1418,550
1419,559
1420,568
1421,582
1422,581
1423,567
1424,551
1425,531
1426,521
1427,519
1428,523
1429,528
1430,526
1431,529
1432,531
1433,536
1434,536
1435,526
1436,536
1437,553
1438,552
1439,562
1440,543
1441,540
1442,542
1443,538
1444,528
1445,515
1446,504
1447,468
1448,433
1449,412
1450,400
1451,408
1452,430
1453,456
1454,467
1455,468
1456,478
1457,508
1458,537
1459,543
1460,530
1461,520
1462,514
1463,515
1464,506
1465,496
1466,495
1467,491
1468,487
1469,476
1470,464
1471,466
1472,476
1473,492
1474,501
1475,500
1476,498
1477,512
1478,534
1479,537
1480,543
1481,548
1482,551
1483,541
1484,538
1485,537
1486,549
1487,563
1488,561
1489,547
1490,520
1491,519
1492,512
1493,493
1494,492
1495,487
1496,494
1497,498
1498,487
1499,490
1500,499
1501,502
1502,503
1503,496
1504,486
1505,482
1506,508
1507,529
1508,544
1509,551
1510,553
1511,549
1512,541
1513,523
1514,510
1515,491
1516,484
1517,483
1518,486
1519,487
1520,488
1521,492
1522,500
1523,503
1524,499
1525,493
1526,503
1527,508
1528,509
1529,514
1530,528
1531,547
1532,560
1533,567
1534,580
1535,592
1536,603
1537,600
1538,584
1539,583
1540,583
1541,578
1542,549
1543,523
1544,513
1545,499
1546,490
1547,494
1548,491
1549,472
1550,459
1551,455
1552,463
1553,481
1554,492
1555,498
1556,510
1557,515
1558,525
1559,532
1560,527
1561,531
1562,532
1563,523
1564,504
1565,480
1566,480
1567,494
1568,500
1569,489
1570,469
1571,462
1572,476
1573,496
1574,500
1575,471
1576,456
1577,457
1578,464
1579,468
1580,472
1581,476
1582,488
1583,487
1584,487
1585,504
1586,529
1587,553
1588,561
1589,562
1590,553
1591,558
1592,563
1593,559
1594,545
1595,533
1596,526
1597,517
1598,512
1599,516
1600,508
1601,507
1602,505
1603,498
1604,481
1605,462
1606,435
1607,428
1608,431
1609,446
1610,455
1611,466
1612,474
1613,474
1614,474
1615,454
1616,445
1617,454
1618,473
1619,491
1620,489
1621,490
1622,487
1623,478
1624,463
1625,438
1626,433
1627,449
1628,466
1629,471
1630,476
1631,479
1632,483
1633,497
1634,504
1635,504
1636,499
1637,483
1638,466
1639,443
1640,436
1641,455
1642,488
1643,502
1644,513
1645,525
1646,526
1647,535
1648,520
1649,511
1650,495
1651,480
1652,475
1653,474
1654,472
1655,476
1656,495
1657,511
1658,527
1659,538
1660,542
1661,556
1662,569
1663,564
1664,544
1665,536
1666,548
1667,558
1668,569
1669,583
1670,593
1671,603
1672,590
1673,569
1674,563
1675,559
1676,560
1677,566
1678,567
1679,572
1680,576
1681,576
1682,563
1683,552
1684,548
1685,538
1686,541
1687,553
1688,550
1689,554
1690,550
1691,555
1692,568
1693,581
1694,580
1695,572
1696,561
1697,545
1698,521
1699,517
1700,506
1701,503
1702,519
1703,531
1704,532
1705,524
1706,530
1707,548
1708,562
1709,562
1710,551
1711,553
1712,548
1713,535
1714,517
1715,504
1716,505
1717,508
1718,519
1719,528
1720,525
1721,531
1722,540
1723,542
1724,521
1725,503
1726,503
1727,502
1728,504
1729,516
1730,535
1731,554
1732,568
1733,577
1734,582
1735,579
1736,584
1737,581
1738,567
1739,558
1740,554
1741,547
1742,521
1743,487
1744,476
1745,469
1746,455
1747,441
1748,431
1749,428
1750,443
1751,460
1752,476
1753,487
1754,488
1755,475
1756,478
1757,490
1758,497
1759,488
1760,479
1761,488
1762,490
1763,502
1764,496
1765,480
1766,469
1767,467
1768,465
1769,467
1770,472
1771,492
1772,507
1773,504
1774,511
1775,513
1776,517
1777,512
1778,498
1779,500
1780,504
1781,515
1782,511
1783,511
1784,516
1785,517
1786,545
1787,569
1788,572
1789,562
1790,550
1791,547
1792,542
1793,535
1794,524
1795,495
1796,467
1797,448
1798,438
1799,439
1800,450
1801,470
1802,496
1803,521
1804,534
1805,527
1806,510
1807,503
1808,502
1809,497
1810,486
1811,494
1812,511
1813,524
1814,533
1815,528
1816,547
1817,563
1818,556
1819,531
1820,505
1821,496
1822,485
1823,482
1824,470
1825,456
1826,458
1827,472
1828,478
1829,486
1830,490
1831,491
1832,494
1833,507
1834,506
1835,497
1836,488
1837,485
1838,487
1839,481
1840,467
1841,472
1842,478
1843,486
1844,471
1845,461
1846,455
1847,452
1848,450
1849,445
1850,450
1851,460
1852,474
1853,491
1854,507
1855,525
1856,524
1857,514
1858,505
1859,494
1860,481
1861,475
1862,483
1863,496
1864,496
1865,489
1866,479
1867,476
1868,478
1869,478
1870,490
1871,504
1872,505
1873,494
1874,498
1875,511
1876,524
1877,533
1878,536
1879,537
1880,559
1881,551
1882,548
1883,549
1884,565
1885,583
1886,584
1887,576
1888,573
1889,569
1890,553
1891,550
1892,537
1893,536
1894,528
1895,508
1896,494
1897,487
1898,493
1899,497
1900,485
1901,489
1902,498
1903,506
1904,517
1905,524
1906,531
1907,543
1908,561
1909,572
1910,569
1911,565
1912,565
1913,566
1914,581
1915,570
1916,540
1917,524
1918,515
1919,504
1920,486
1921,483
1922,485
1923,485
1924,481
1925,484
1926,496
1927,502
1928,513
1929,511
1930,513
1931,519
1932,520
1933,527
1934,520
1935,506
1936,509
1937,527
1938,544
1939,545
1940,537
1941,524
1942,496
1943,478
1944,462
1945,438
1946,433
1947,438
1948,446
1949,434
1950,423
1951,420
1952,426
1953,432
1954,446
1955,468
1956,491
1957,517
1958,544
1959,555
1960,553
1961,554
1962,550
1963,553
1964,547
1965,533
1966,521
1967,520
1968,513
1969,499
1970,482
1971,467
1972,452
1973,446
1974,453
1975,455
1976,467
1977,487
1978,504
1979,511
1980,511
1981,524
1982,540
1983,546
1984,549
1985,560
1986,576
1987,588
1988,593
1989,593
1990,571
1991,542
1992,529
1993,525
1994,514
1995,474
1996,456
1997,456
1998,477
1999,497
