timestamp,signal
0,576
1,596
2,603
3,586
4,548
5,531
6,522
7,526
8,516
9,504
10,494
11,487
12,469
13,440
14,414
15,408
16,423
17,455
18,477
19,478
20,483
21,497
22,508
23,506
24,492
25,493
26,510
27,531
28,540
29,525
30,533
31,541
32,545
33,540
34,502
35,488
36,489
37,493
38,489
39,479
40,499
41,520
42,531
43,542
44,551
45,566
46,579
47,589
48,593
49,588
50,594
51,598
52,588
53,569
54,545
55,544
56,530
57,520
58,524
59,519
60,527
61,536
62,535
63,533
64,513
65,494
66,486
67,473
68,476
69,456
70,472
71,498
72,524
73,539
74,531
75,529
76,524
77,523
78,525
79,517
80,528
81,544
82,568
83,576
84,561
85,543
86,522
87,506
88,491
89,470
90,480
91,497
92,510
93,515
94,519
95,536
96,545
97,540
98,538
99,527
100,536
101,550
102,559
103,553
104,536
105,523
106,521
107,519
108,510
109,481
110,463
111,450
112,442
113,438
114,438
115,458
116,480
117,515
118,543
119,541
120,546
121,560
122,571
123,555
124,520
125,493
126,466
127,446
128,435
129,427
130,430
131,436
132,454
133,449
134,431
135,432
136,438
137,444
138,464
139,455
140,460
141,460
142,456
143,467
144,473
145,495
146,510
147,513
148,523
149,519
150,524
151,542
152,565
153,565
154,546
155,548
156,562
157,576
158,588
159,577
160,580
161,580
162,566
163,558
164,545
165,547
166,543
167,532
168,524
169,501
170,495
171,500
172,516
173,538
174,539
175,543
176,553
177,552
178,541
179,508
180,487
181,471
182,446
183,433
184,435
185,456
186,479
187,482
188,488
189,496
190,509
191,511
192,500
193,491
194,492
195,508
196,519
197,523
198,529
199,530
200,551
201,569
202,573
203,571
204,569
205,577
206,583
207,590
208,587
209,566
210,565
211,575
212,576
213,580
214,568
215,565
216,572
217,565
218,548
219,512
220,504
221,513
222,532
223,550
224,553
225,557
226,573
227,575
228,561
229,528
230,518
231,522
232,522
233,515
234,491
235,480
236,473
237,470
238,476
239,465
240,462
241,478
242,466
243,456
244,451
245,461
246,466
247,463
248,480
249,493
250,516
251,535
252,546
253,547
254,536
255,537
256,529
257,501
258,457
259,422
260,418
261,436
262,444
263,455
264,468
265,495
266,515
267,513
268,508
269,484
270,477
271,473
272,468
273,469
274,460
275,447
276,450
277,472
278,491
279,500
280,516
281,532
282,536
283,550
284,543
285,536
286,531
287,524
288,514
289,499
290,510
291,533
292,550
293,543
294,516
295,510
296,509
297,496
298,492
299,481
300,489
301,501
302,516
303,536
304,534
305,536
306,531
307,535
308,543
309,544
310,540
311,541
312,528
313,504
314,496
315,503
316,500
317,496
318,499
319,511
320,537
321,539
322,520
323,513
324,514
325,517
326,528
327,539
328,536
329,520
330,512
331,494
332,479
333,466
334,455
335,473
336,495
337,519
338,531
339,512
340,506
341,513
342,522
343,525
344,514
345,513
346,527
347,535
348,525
349,489
350,463
351,462
352,453
353,448
354,432
355,420
356,417
357,441
358,459
359,451
360,470
361,494
362,510
363,524
364,527
365,521
366,511
367,490
368,483
369,472
370,480
371,504
372,529
373,545
374,533
375,529
376,536
377,504
378,488
379,467
380,465
381,475
382,486
383,488
384,480
385,486
386,492
387,496
388,500
389,486
390,492
391,504
392,509
393,504
394,492
395,484
396,502
397,515
398,513
399,500
400,491
401,477
402,475
403,463
404,448
405,447
406,451
407,459
408,459
409,435
410,435
411,459
412,467
413,484
414,499
415,513
416,527
417,534
418,529
419,528
420,536
421,539
422,544
423,557
424,563
425,574
426,586
427,585
428,583
429,571
430,573
431,568
432,565
433,562
434,548
435,546
436,542
437,536
438,524
439,505
440,515
441,530
442,536
443,538
444,524
445,516
446,516
447,518
448,518
449,499
450,509
451,530
452,539
453,535
454,513
455,515
456,497
457,501
458,491
459,466
460,467
461,477
462,460
463,474
464,480
465,495
466,523
467,544
468,564
469,583
470,603
471,626
472,637
473,628
474,606
475,594
476,577
477,561
478,565
479,561
480,572
481,583
482,585
483,577
484,558
485,547
486,533
487,522
488,512
489,505
490,517
491,534
492,541
493,534
494,519
495,530
496,539
497,545
498,547
499,539
500,537
501,530
502,513
503,502
504,473
505,468
506,478
507,466
508,448
509,422
510,431
511,449
512,460
513,458
514,441
515,454
516,475
517,490
518,515
519,524
520,547
521,556
522,554
523,550
524,547
525,550
526,546
527,534
528,529
529,541
530,560
531,567
532,561
533,560
534,556
535,569
536,577
537,569
538,551
539,527
540,531
541,543
542,540
543,524
544,496
545,483
546,478
547,466
548,455
549,428
550,421
551,427
552,444
553,446
554,439
555,437
556,439
557,442
558,434
559,417
560,417
561,429
562,439
563,454
564,457
565,461
566,451
567,446
568,444
569,442
570,454
571,476
572,494
573,520
574,559
575,592
576,600
577,583
578,570
579,564
580,568
581,561
582,540
583,508
584,487
585,493
586,511
587,516
588,527
589,516
590,508
591,503
592,491
593,478
594,459
595,459
596,476
597,495
598,497
599,482
600,476
601,486
602,504
603,515
604,492
605,486
606,469
607,453
608,444
609,440
610,451
611,465
612,484
613,507
614,525
615,555
616,558
617,540
618,534
619,508
620,492
621,486
622,471
623,457
624,447
625,455
626,478
627,491
628,496
629,496
630,523
631,554
632,569
633,558
634,527
635,510
636,500
637,485
638,483
639,478
640,492
641,512
642,519
643,516
644,507
645,513
646,517
647,508
648,500
649,468
650,462
651,464
652,451
653,443
654,423
655,429
656,449
657,462
658,469
659,464
660,475
661,488
662,506
663,512
664,503
665,510
666,519
667,526
668,526
669,520
670,530
671,537
672,537
673,535
674,509
675,502
676,504
677,502
678,497
679,487
680,501
681,525
682,549
683,575
684,582
685,593
686,603
687,620
688,630
689,619
690,610
691,596
692,586
693,573
694,544
695,533
696,527
697,519
698,519
699,517
700,523
701,539
702,536
703,538
704,536
705,546
706,552
707,556
708,556
709,534
710,506
711,500
712,493
713,497
714,495
715,503
716,515
717,529
718,516
719,497
720,495
721,508
722,518
723,527
724,525
725,530
726,523
727,502
728,487
729,472
730,462
731,461
732,482
733,476
734,449
735,436
736,449
737,475
738,484
739,479
740,481
741,494
742,519
743,522
744,507
745,476
746,425
747,391
748,396
749,406
750,443
751,489
752,522
753,535
754,524
755,530
756,542
757,540
758,531
759,515
760,525
761,546
762,559
763,564
764,547
765,532
766,518
767,497
768,498
769,492
770,497
771,516
772,540
773,555
774,548
775,550
776,553
777,546
778,530
779,513
780,503
781,500
782,503
783,511
784,511
785,528
786,539
787,547
788,559
789,559
790,560
791,557
792,541
793,527
794,520
795,529
796,536
797,534
798,522
799,507
800,517
801,527
802,533
803,528
804,515
805,492
806,461
807,462
808,463
809,462
810,470
811,471
812,473
813,464
814,447
815,450
816,470
817,490
818,486
819,466
820,456
821,444
822,439
823,438
824,446
825,449
826,456
827,472
828,486
829,482
830,488
831,492
832,490
833,482
834,470
835,481
836,483
837,480
838,487
839,485
840,505
841,505
842,496
843,492
844,472
845,476
846,488
847,493
848,497
849,487
850,493
851,507
852,525
853,529
854,511
855,515
856,526
857,515
858,512
859,506
860,504
861,498
862,504
863,514
864,506
865,515
866,523
867,537
868,543
869,550
870,563
871,566
872,561
873,558
874,552
875,564
876,552
877,534
878,509
879,472
880,465
881,476
882,476
883,481
884,481
885,487
886,490
887,490
888,504
889,476
890,475
891,489
892,505
893,512
894,504
895,521
896,526
897,537
898,536
899,516
900,506
901,505
902,495
903,466
904,444
905,439
906,442
907,443
908,451
909,453
910,479
911,508
912,521
913,530
914,521
915,525
916,519
917,504
918,493
919,476
920,500
921,527
922,543
923,555
924,556
925,552
926,550
927,547
928,550
929,540
930,534
931,535
932,534
933,524
934,501
935,489
936,485
937,498
938,508
939,497
940,496
941,503
942,518
943,540
944,549
945,537
946,532
947,532
948,527
949,510
950,522
951,535
952,525
953,524
954,518
955,516
956,522
957,521
958,513
959,499
960,516
961,536
962,541
963,542
964,523
965,525
966,522
967,515
968,509
969,489
970,485
971,484
972,475
973,460
974,433
975,428
976,443
977,458
978,462
979,462
980,465
981,477
982,481
983,487
984,478
985,458
986,444
987,447
988,428
989,406
990,429
991,449
992,453
993,451
994,441
995,441
996,450
997,456
998,465
999,468
1000,504
1001,546
1002,570
1003,569
1004,551
1005,553
1006,558
1007,557
1008,565
1009,556
1010,560
1011,567
1012,560
1013,580
1014,583
1015,607
1016,614
1017,603
1018,592
1019,559
1020,542
1021,523
1022,504
1023,500
1024,499
1025,498
1026,494
1027,481
1028,477
1029,463
1030,469
1031,484
1032,491
1033,499
1034,481
1035,485
1036,488
1037,493
1038,500
1039,489
1040,500
1041,510
1042,508
1043,512
1044,500
1045,511
1046,535
1047,554
1048,548
1049,524
1050,531
1051,547
1052,549
1053,549
1054,536
1055,531
1056,524
1057,521
1058,519
1059,500
1060,492
1061,498
1062,480
1063,485
1064,473
1065,478
1066,495
1067,512
1068,527
1069,523
1070,534
1071,547
1072,544
1073,517
1074,487
1075,479
1076,476
1077,472
1078,478
1079,474
1080,487
1081,509
1082,530
1083,533
1084,524
1085,526
1086,529
1087,547
1088,557
1089,546
1090,536
1091,531
1092,528
1093,517
1094,506
1095,510
1096,513
1097,505
1098,491
1099,482
1100,483
1101,492
1102,506
1103,500
1104,497
1105,503
1106,513
1107,527
1108,539
1109,528
1110,535
1111,544
1112,555
1113,551
1114,525
1115,513
1116,513
1117,516
1118,506
1119,493
1120,503
1121,518
1122,517
1123,528
1124,531
1125,543
1126,544
1127,549
1128,553
1129,538
1130,534
1131,543
1132,548
1133,532
1134,502
1135,507
1136,508
1137,500
1138,495
1139,492
1140,507
1141,526
1142,553
1143,580
1144,588
1145,594
1146,594
1147,588
1148,576
1149,560
1150,568
1151,574
1152,573
1153,564
1154,557
1155,560
1156,559
1157,551
1158,546
1159,527
1160,526
1161,521
1162,516
1163,513
1164,489
1165,478
1166,481
1167,502
1168,502
1169,486
1170,476
1171,483
1172,488
1173,494
1174,501
1175,520
1176,520
1177,509
1178,503
1179,499
1180,516
1181,524
1182,520
1183,527
1184,522
1185,535
1186,543
1187,555
1188,549
1189,537
1190,539
1191,538
1192,537
1193,542
1194,519
1195,512
1196,529
1197,550
1198,561
1199,556
1200,559
1201,547
1202,527
1203,517
1204,496
1205,490
1206,489
1207,483
1208,473
1209,449
1210,448
1211,460
1212,459
1213,468
1214,477
1215,496
1216,509
1217,509
1218,497
1219,478
1220,481
1221,502
1222,511
1223,511
1224,504
1225,515
1226,530
1227,550
1228,558
1229,555
1230,542
1231,523
1232,519
1233,503
1234,480
1235,470
1236,454
1237,450
1238,447
1239,440
1240,443
1241,458
1242,476
1243,455
1244,410
1245,400
1246,403
1247,417
1248,421
1249,417
1250,443
1251,482
1252,485
1253,484
1254,458
1255,441
1256,435
1257,428
1258,432
1259,427
1260,431
1261,444
1262,459
1263,465
1264,463
1265,482
1266,503
1267,517
1268,520
1269,497
1270,488
1271,495
1272,506
1273,522
1274,521
1275,519
1276,519
1277,518
1278,512
1279,499
1280,512
1281,524
1282,534
1283,545
1284,544
1285,547
1286,557
1287,555
1288,544
1289,550
1290,575
1291,589
1292,585
1293,576
1294,559
1295,533
1296,502
1297,493
1298,493
1299,490
1300,502
1301,524
1302,538
1303,534
1304,507
1305,506
1306,519
1307,532
1308,528
1309,500
1310,503
1311,520
1312,534
1313,531
1314,512
1315,508
1316,507
1317,507
1318,519
1319,509
1320,516
1321,521
1322,526
1323,537
1324,527
1325,520
1326,521
1327,520
1328,522
1329,513
1330,516
1331,528
1332,538
1333,543
1334,524
1335,516
1336,517
1337,526
1338,526
1339,511
1340,513
1341,514
1342,513
1343,489
1344,466
1345,471
1346,487
1347,493
1348,499
1349,475
1350,490
1351,504
1352,512
1353,527
1354,531
1355,550
1356,567
1357,565
1358,556
1359,548
1360,564
1361,574
1362,575
1363,568
1364,547
1365,532
1366,513
1367,509
1368,510
1369,506
1370,526
1371,546
1372,533
1373,511
1374,485
1375,486
1376,498
1377,508
1378,508
1379,505
1380,504
1381,506
1382,519
1383,528
1384,518
1385,516
1386,530
1387,546
1388,550
1389,512
1390,491
1391,488
1392,475
1393,473
1394,467
1395,465
1396,473
1397,505
1398,514
1399,526
1400,544
1401,556
1402,563
1403,548
1404,527
1405,508
1406,492
1407,492
1408,486
1409,467
1410,460
1411,449
1412,447
1413,463
1414,473
1415,503
1416,523
1417,523
1418,525
1419,514
1420,521
1421,537
1422,553
1423,555
1424,538
1425,514
1426,480
1427,461
1428,448
1429,417
1430,408
1431,411
1432,429
1433,433
1434,443
1435,427
1436,409
1437,419
1438,419
1439,410
1440,395
1441,380
1442,362
1443,353
1444,346
1445,364
1446,389
1447,423
1448,463
1449,480
1450,500
1451,519
1452,528
1453,535
1454,520
1455,526
1456,532
1457,536
1458,539
1459,524
1460,522
1461,525
1462,527
1463,530
1464,519
1465,535
1466,523
1467,519
1468,519
1469,524
1470,551
1471,558
1472,537
1473,509
1474,504
1475,508
1476,519
1477,515
1478,515
1479,526
1480,553
1481,580
1482,596
1483,594
1484,562
1485,540
1486,521
1487,493
1488,484
1489,471
1490,458
1491,446
1492,427
1493,423
1494,427
1495,448
1496,483
1497,499
1498,508
1499,517
1500,525
1501,520
1502,510
1503,511
1504,500
1505,495
1506,505
1507,523
1508,525
1509,517
1510,536
1511,539
1512,540
1513,527
1514,491
1515,464
1516,456
1517,460
1518,479
1519,487
1520,506
1521,529
1522,544
1523,551
1524,551
1525,555
1526,551
1527,536
1528,527
1529,511
1530,510
1531,524
1532,540
1533,555
1534,553
1535,561
1536,553
1537,547
1538,547
1539,542
1540,551
1541,559
1542,558
1543,556
1544,547
1545,551
1546,550
1547,541
1548,521
1549,495
1550,508
1551,523
1552,515
1553,507
1554,503
1555,510
1556,512
1557,512
1558,510
1559,504
1560,515
1561,532
1562,539
1563,544
1564,547
1565,565
1566,544
1567,534
1568,522
1569,509
1570,511
1571,531
1572,552
1573,577
1574,570
1575,562
1576,562
1577,568
1578,572
1579,563
1580,558
1581,556
1582,558
1583,575
1584,590
1585,584
1586,558
1587,538
1588,503
1589,459
1590,433
1591,435
1592,461
1593,494
1594,505
1595,503
1596,494
1597,492
1598,492
1599,490
1600,511
1601,532
1602,531
1603,538
1604,527
1605,521
1606,535
1607,553
1608,563
1609,543
1610,536
1611,534
1612,532
1613,524
1614,503
1615,512
1616,520
1617,530
1618,547
1619,552
1620,560
1621,554
1622,535
1623,525
1624,511
1625,501
1626,500
1627,507
1628,524
1629,524
1630,527
1631,540
1632,536
1633,541
1634,532
1635,528
1636,531
1637,541
1638,540
1639,529
1640,522
1641,517
1642,519
1643,525
1644,513
1645,499
1646,484
1647,472
1648,465
1649,449
1650,452
1651,458
1652,471
1653,485
1654,492
1655,508
1656,519
1657,524
1658,516
1659,492
1660,494
1661,497
1662,505
1663,505
1664,481
1665,468
1666,466
1667,485
1668,489
1669,470
1670,451
1671,441
1672,450
1673,436
1674,421
1675,415
1676,408
1677,420
1678,432
1679,435
1680,433
1681,430
1682,448
1683,465
1684,466
1685,445
1686,418
1687,415
1688,420
1689,421
1690,432
1691,450
1692,467
1693,472
1694,432
1695,420
1696,431
1697,450
1698,453
1699,452
1700,465
1701,489
1702,512
1703,513
1704,500
1705,503
1706,509
1707,496
1708,480
1709,474
1710,480
1711,494
1712,497
1713,493
1714,487
1715,494
1716,497
1717,491
1718,484
1719,473
1720,488
1721,504
1722,508
1723,492
1724,463
1725,453
1726,455
1727,462
1728,479
1729,481
1730,500
1731,522
1732,529
1733,529
1734,507
1735,496
1736,511
1737,530
1738,543
1739,536
1740,532
1741,524
1742,508
1743,487
1744,470
1745,476
1746,492
1747,512
1748,506
1749,485
1750,464
1751,448
1752,454
1753,472
1754,469
1755,481
1756,482
1757,472
1758,472
1759,472
1760,497
1761,517
1762,526
1763,547
1764,541
1765,536
1766,536
1767,535
1768,528
1769,505
1770,489
1771,476
1772,483
1773,501
1774,492
1775,497
1776,506
1777,510
1778,510
1779,494
1780,490
1781,487
1782,487
1783,497
1784,502
1785,519
1786,534
1787,542
1788,549
1789,537
1790,542
1791,540
1792,534
1793,527
1794,521
1795,532
1796,547
1797,547
1798,526
1799,504
1800,487
1801,481
1802,496
1803,505
1804,499
1805,498
1806,502
1807,512
1808,512
1809,499
1810,499
1811,507
1812,518
1813,537
1814,526
1815,524
1816,525
1817,513
1818,508
1819,504
1820,510
1821,512
1822,504
1823,505
1824,497
1825,511
1826,510
1827,509
1828,518
1829,523
1830,540
1831,545
1832,543
1833,549
1834,533
1835,528
1836,533
1837,537
1838,532
1839,523
1840,529
1841,529
1842,526
1843,519
1844,507
1845,494
1846,478
1847,483
1848,486
1849,468
1850,457
1851,459
1852,477
1853,468
1854,438
1855,415
1856,423
1857,449
1858,481
1859,498
1860,521
1861,532
1862,539
1863,550
1864,539
1865,541
1866,551
1867,563
1868,581
1869,584
1870,600
1871,607
1872,617
1873,624
1874,605
1875,598
1876,590
1877,582
1878,579
1879,572
1880,579
1881,585
1882,572
1883,556
1884,537
1885,527
1886,519
1887,516
1888,531
1889,537
1890,531
1891,523
1892,522
1893,531
1894,515
1895,523
1896,540
1897,540
1898,529
1899,507
1900,512
1901,523
1902,523
1903,530
1904,535
1905,551
1906,567
1907,563
1908,547
1909,511
1910,493
1911,487
1912,486
1913,492
1914,478
1915,471
1916,464
1917,455
1918,462
1919,457
1920,460
1921,465
1922,463
1923,471
1924,465
1925,480
1926,492
1927,502
1928,510
1929,486
1930,474
1931,471
1932,474
1933,496
1934,511
1935,542
1936,570
1937,563
1938,553
1939,531
1940,519
1941,527
1942,532
1943,550
1944,553
1945,564
1946,579
1947,578
1948,561
1949,517
1950,505
1951,508
1952,506
1953,498
1954,478
1955,479
1956,491
1957,491
1958,488
1959,479
1960,492
1961,502
1962,504
1963,509
1964,495
1965,482
1966,484
1967,495
1968,503
1969,505
1970,523
1971,533
1972,533
1973,523
1974,507
1975,492
1976,486
1977,491
1978,482
1979,461
1980,458
1981,472
1982,489
1983,497
1984,501
1985,513
1986,525
1987,547
1988,561
1989,556
1990,550
1991,538
1992,527
1993,528
1994,507
1995,504
1996,515
1997,514
1998,526
1999,536
