timestamp,signal
0,543
1,544
2,542
3,533
4,535
5,545
6,543
7,543
8,552
9,563
10,567
11,573
12,579
13,574
14,574
15,581
16,596
17,600
18,579
19,561
20,549
21,547
22,538
23,529
24,527
25,524
26,525
27,510
28,486
29,477
30,479
31,483
32,480
33,477
34,476
35,486
36,486
37,490
38,475
39,464
40,468
41,485
42,501
43,500
44,506
45,519
46,522
47,511
48,483
49,475
50,480
51,496
52,505
53,493
54,497
55,508
56,516
57,513
58,514
59,515
60,512
61,515
62,507
63,492
64,490
65,490
66,496
67,495
68,480
69,461
70,457
71,459
72,443
73,428
74,418
75,415
76,427
77,433
78,440
79,467
80,487
81,482
82,460
83,432
84,435
85,461
86,478
87,486
88,491
89,497
90,496
91,492
92,484
93,485
94,475
95,486
96,495
97,495
98,486
99,494
100,508
101,508
102,498
103,492
104,495
105,493
106,491
107,500
108,486
109,503
110,530
111,547
112,541
113,531
114,532
115,527
116,495
117,446
118,433
119,435
120,446
121,471
122,472
123,451
124,440
125,436
126,450
127,447
128,440
129,453
130,469
131,487
132,484
133,470
134,467
135,463
136,475
137,477
138,479
139,483
140,484
141,484
142,475
143,463
144,468
145,484
146,501
147,503
148,504
149,516
150,533
151,548
152,560
153,551
154,557
155,568
156,586
157,595
158,585
159,559
160,541
161,536
162,523
163,510
164,512
165,529
166,539
167,540
168,530
169,533
170,543
171,541
172,520
173,492
174,490
175,504
176,521
177,529
178,520
179,519
180,516
181,509
182,516
183,531
184,541
185,551
186,554
187,553
188,551
189,548
190,539
191,526
192,524
193,512
194,507
195,505
196,510
197,513
198,517
199,534
200,551
201,552
202,549
203,545
204,544
205,552
206,556
207,563
208,564
209,570
210,567
211,556
212,541
213,524
214,523
215,523
216,521
217,499
218,496
219,494
220,486
221,488
222,500
223,505
224,521
225,529
226,515
227,484
228,464
229,459
230,448
231,438
232,441
233,447
234,471
235,491
236,503
237,504
238,489
239,487
240,492
241,504
242,504
243,492
244,484
245,487
246,504
247,513
248,506
249,504
250,508
251,514
252,522
253,525
254,528
255,532
256,529
257,518
258,492
259,481
260,479
261,469
262,468
263,461
264,460
265,468
266,472
267,487
268,503
269,505
270,503
271,512
272,512
273,525
274,534
275,524
276,509
277,507
278,505
279,511
280,504
281,489
282,483
283,474
284,482
285,496
286,505
287,504
288,493
289,499
290,506
291,496
292,464
293,435
294,427
295,431
296,425
297,419
298,410
299,435
300,473
301,510
302,520
303,523
304,536
305,546
306,557
307,565
308,557
309,546
310,541
311,546
312,534
313,512
314,499
315,501
316,522
317,519
318,510
319,498
320,501
321,513
322,534
323,543
324,543
325,536
326,521
327,500
328,484
329,480
330,480
331,474
332,455
333,444
334,448
335,469
336,485
337,487
338,486
339,478
340,472
341,478
342,485
343,476
344,472
345,467
346,456
347,440
348,426
349,441
350,460
351,469
352,456
353,433
354,417
355,416
356,435
357,434
358,427
359,426
360,442
361,458
362,472
363,478
364,492
365,515
366,534
367,540
368,536
369,532
370,531
371,534
372,522
373,506
374,496
375,480
376,480
377,481
378,472
379,463
380,456
381,453
382,451
383,450
384,449
385,448
386,451
387,463
388,475
389,491
390,511
391,527
392,531
393,531
394,525
395,528
396,542
397,540
398,536
399,539
400,553
401,563
402,554
403,543
404,541
405,546
406,554
407,550
408,542
409,553
410,570
411,575
412,585
413,581
414,582
415,583
416,565
417,565
418,567
419,571
420,581
421,582
422,568
423,547
424,538
425,538
426,531
427,544
428,553
429,557
430,561
431,543
432,538
433,534
434,542
435,540
436,529
437,516
438,504
439,501
440,501
441,516
442,529
443,533
444,538
445,549
446,565
447,571
448,561
449,562
450,562
451,552
452,538
453,513
454,503
455,505
456,512
457,515
458,527
459,551
460,564
461,563
462,570
463,579
464,580
465,582
466,577
467,568
468,550
469,543
470,542
471,545
472,556
473,544
474,534
475,542
476,548
477,544
478,534
479,516
480,493
481,485
482,484
483,476
484,485
485,499
486,504
487,491
488,476
489,487
490,504
491,524
492,538
493,536
494,539
495,532
496,536
497,551
498,556
499,564
500,569
501,558
502,522
503,499
504,499
505,500
506,508
507,502
508,481
509,470
510,463
511,476
512,482
513,481
514,485
515,493
516,490
517,489
518,489
519,485
520,484
521,492
522,489
523,483
524,486
525,508
526,532
527,527
528,507
529,495
530,494
531,504
532,497
533,486
534,488
535,497
536,504
537,517
538,517
539,517
540,516
541,518
542,535
543,550
544,542
545,542
546,553
547,567
548,579
549,595
550,607
551,609
552,612
553,619
554,608
555,594
556,573
557,563
558,559
559,568
560,567
561,560
562,542
563,524
564,530
565,540
566,551
567,538
568,524
569,522
570,513
571,510
572,513
573,518
574,527
575,526
576,520
577,511
578,502
579,505
580,513
581,529
582,526
583,524
584,527
585,523
586,520
587,513
588,502
589,493
590,494
591,498
592,496
593,488
594,483
595,465
596,464
597,450
598,442
599,453
600,452
601,445
602,428
603,413
604,425
605,451
606,483
607,513
608,507
609,507
610,507
611,498
612,495
613,491
614,496
615,499
616,504
617,506
618,496
619,487
620,492
621,505
622,515
623,516
624,524
625,534
626,548
627,541
628,531
629,514
630,510
631,493
632,467
633,451
634,462
635,488
636,505
637,502
638,507
639,518
640,523
641,526
642,524
643,518
644,504
645,499
646,494
647,483
648,465
649,459
650,460
651,474
652,488
653,483
654,488
655,505
656,513
657,523
658,531
659,539
660,551
661,548
662,547
663,546
664,542
665,532
666,514
667,504
668,479
669,468
670,464
671,457
672,461
673,466
674,476
675,491
676,503
677,494
678,492
679,485
680,482
681,489
682,472
683,445
684,435
685,431
686,429
687,428
688,432
689,447
690,464
691,479
692,481
693,473
694,476
695,485
696,487
697,477
698,468
699,470
700,468
701,476
702,479
703,489
704,511
705,522
706,525
707,526
708,522
709,535
710,555
711,547
712,519
713,491
714,479
715,486
716,485
717,481
718,467
719,459
720,466
721,474
722,475
723,460
724,458
725,470
726,485
727,497
728,492
729,478
730,461
731,442
732,422
733,408
734,401
735,398
736,409
737,392
738,369
739,357
740,368
741,409
742,419
743,446
744,462
745,474
746,494
747,500
748,490
749,486
750,474
751,464
752,464
753,472
754,487
755,507
756,525
757,542
758,546
759,551
760,558
761,570
762,556
763,527
764,519
765,534
766,546
767,549
768,544
769,545
770,551
771,551
772,538
773,514
774,507
775,515
776,524
777,523
778,500
779,493
780,505
781,499
782,495
783,495
784,509
785,531
786,545
787,543
788,537
789,542
790,541
791,524
792,492
793,459
794,444
795,440
796,439
797,455
798,482
799,512
800,543
801,567
802,577
803,578
804,585
805,594
806,592
807,591
808,588
809,600
810,607
811,607
812,615
813,620
814,636
815,654
816,647
817,643
818,615
819,614
820,622
821,606
822,575
823,548
824,535
825,536
826,530
827,535
828,533
829,519
830,508
831,508
832,511
833,510
834,519
835,534
836,532
837,538
838,538
839,538
840,542
841,527
842,510
843,492
844,484
845,477
846,495
847,495
848,480
849,483
850,487
851,493
852,517
853,525
854,532
855,543
856,540
857,520
858,518
859,524
860,541
861,556
862,555
863,542
864,545
865,550
866,545
867,537
868,536
869,539
870,527
871,518
872,501
873,479
874,475
875,486
876,501
877,514
878,519
879,520
880,521
881,517
882,522
883,519
884,527
885,544
886,549
887,556
888,570
889,585
890,585
891,571
892,553
893,534
894,531
895,525
896,521
897,499
898,473
899,475
900,489
901,495
902,495
903,488
904,500
905,506
906,498
907,487
908,476
909,480
910,487
911,498
912,500
913,490
914,495
915,504
916,503
917,500
918,501
919,517
920,542
921,566
922,576
923,565
924,564
925,567
926,563
927,536
928,511
929,505
930,501
931,489
932,491
933,488
934,498
935,503
936,507
937,515
938,493
939,489
940,504
941,519
942,513
943,502
944,513
945,525
946,529
947,516
948,487
949,471
950,474
951,474
952,463
953,455
954,467
955,482
956,494
957,489
958,480
959,488
960,499
961,508
962,499
963,472
964,465
965,471
966,483
967,503
968,509
969,513
970,522
971,523
972,522
973,517
974,521
975,527
976,523
977,528
978,527
979,526
980,528
981,528
982,525
983,530
984,540
985,551
986,561
987,575
988,591
989,608
990,601
991,583
992,575
993,572
994,569
995,556
996,543
997,531
998,511
999,500
1000,480
1001,474
1002,494
1003,492
1004,489
1005,486
1006,498
1007,511
1008,504
1009,492
1010,478
1011,466
1012,459
1013,458
1014,467
1015,474
1016,464
1017,460
1018,456
1019,468
1020,478
1021,495
1022,501
1023,498
1024,512
1025,528
1026,543
1027,553
1028,544
1029,531
1030,515
1031,505
1032,487
1033,473
1034,482
1035,487
1036,481
1037,465
1038,449
1039,444
1040,441
1041,444
1042,459
1043,468
1044,483
1045,486
1046,481
1047,477
1048,481
1049,503
1050,521
1051,532
1052,529
1053,515
1054,513
1055,514
1056,513
1057,521
1058,497
1059,506
1060,516
1061,516
1062,515
1063,517
1064,525
1065,531
1066,524
1067,513
1068,508
1069,494
1070,489
1071,496
1072,495
1073,489
1074,495
1075,501
1076,501
1077,497
1078,492
1079,480
1080,460
1081,468
1082,471
1083,473
1084,480
1085,492
1086,503
1087,518
1088,519
1089,515
1090,511
1091,511
1092,510
1093,507
1094,504
1095,502
1096,506
1097,512
1098,500
1099,503
1100,509
1101,512
1102,508
1103,502
1104,497
1105,487
1106,490
1107,487
1108,475
1109,472
1110,468
1111,468
1112,479
1113,493
1114,506
1115,508
1116,507
1117,515
1118,527
1119,536
1120,535
1121,548
1122,533
1123,516
1124,500
1125,481
1126,470
1127,446
1128,421
1129,420
1130,435
1131,445
1132,463
1133,486
1134,508
1135,524
1136,534
1137,535
1138,523
1139,518
1140,521
1141,527
1142,523
1143,509
1144,519
1145,537
1146,542
1147,534
1148,512
1149,503
1150,494
1151,478
1152,468
1153,455
1154,461
1155,474
1156,499
1157,510
1158,514
1159,528
1160,541
1161,548
1162,545
1163,541
1164,541
1165,524
1166,510
1167,492
1168,482
1169,478
1170,463
1171,457
1172,448
1173,434
1174,427
1175,416
1176,424
1177,429
1178,432
1179,462
1180,484
1181,500
1182,515
1183,518
1184,523
1185,525
1186,528
1187,524
1188,521
1189,532
1190,529
1191,519
1192,524
1193,508
1194,503
1195,516
1196,529
1197,540
1198,545
1199,547
1200,554
1201,533
1202,524
1203,509
1204,512
1205,525
1206,536
1207,533
1208,523
1209,518
1210,521
1211,526
1212,526
1213,514
1214,516
1215,524
1216,515
1217,505
1218,479
1219,481
1220,494
1221,515
1222,535
1223,541
1224,552
1225,555
1226,542
1227,526
1228,511
1229,515
1230,520
1231,524
1232,524
1233,505
1234,503
1235,518
1236,527
1237,532
1238,519
1239,509
1240,494
1241,483
1242,467
1243,450
1244,446
1245,455
1246,473
1247,476
1248,465
1249,475
1250,491
1251,498
1252,494
1253,482
1254,491
1255,497
1256,512
1257,529
1258,536
1259,536
1260,544
1261,543
1262,542
1263,542
1264,562
1265,580
1266,572
1267,556
1268,539
1269,547
1270,561
1271,566
1272,571
1273,574
1274,579
1275,584
1276,582
1277,579
1278,575
1279,580
1280,588
1281,584
1282,564
1283,549
1284,551
1285,556
1286,551
1287,537
1288,508
1289,511
1290,513
1291,515
1292,512
1293,494
1294,489
1295,496
1296,510
1297,511
1298,498
1299,488
1300,493
1301,498
1302,491
1303,483
1304,491
1305,489
1306,484
1307,478
1308,454
1309,446
1310,440
1311,441
1312,451
1313,468
1314,496
1315,517
1316,512
1317,494
1318,466
1319,451
1320,460
1321,475
1322,483
1323,483
1324,496
1325,504
1326,504
1327,487
1328,462
1329,458
1330,471
1331,478
1332,495
1333,522
1334,548
1335,556
1336,555
1337,560
1338,559
1339,570
1340,556
1341,555
1342,558
1343,563
1344,568
1345,577
1346,588
1347,589
1348,573
1349,561
1350,541
1351,534
1352,523
1353,511
1354,512
1355,508
1356,511
1357,513
1358,498
1359,494
1360,497
1361,497
1362,477
1363,457
1364,467
1365,487
1366,497
1367,503
1368,508
1369,523
1370,537
1371,553
1372,556
1373,538
1374,523
1375,527
1376,536
1377,542
1378,534
1379,523
1380,523
1381,525
1382,514
1383,506
1384,501
1385,514
1386,519
1387,521
1388,514
1389,519
1390,512
1391,501
1392,496
1393,487
1394,487
1395,486
1396,482
1397,492
1398,492
1399,493
1400,493
1401,497
1402,506
1403,508
1404,508
1405,515
1406,524
1407,516
1408,504
1409,495
1410,481
1411,482
1412,459
1413,440
1414,443
1415,467
1416,465
1417,473
1418,486
1419,515
1420,541
1421,558
1422,572
1423,582
1424,587
1425,595
1426,564
1427,556
1428,545
1429,542
1430,536
1431,518
1432,508
1433,503
1434,518
1435,538
1436,545
1437,549
1438,539
1439,544
1440,526
1441,519
1442,501
1443,480
1444,478
1445,483
1446,483
1447,476
1448,458
1449,465
1450,491
1451,519
1452,527
1453,515
1454,517
1455,519
1456,522
1457,519
1458,506
1459,491
1460,474
1461,459
1462,446
1463,434
1464,428
1465,429
1466,439
1467,434
1468,430
1469,433
1470,435
1471,435
1472,433
1473,422
1474,427
1475,438
1476,451
1477,475
1478,497
1479,519
1480,531
1481,552
1482,587
1483,607
1484,622
1485,626
1486,608
1487,601
1488,600
1489,602
1490,601
1491,589
1492,563
1493,531
1494,524
1495,518
1496,509
1497,494
1498,494
1499,501
1500,499
1501,508
1502,509
1503,503
1504,514
1505,522
1506,529
1507,543
1508,534
1509,525
1510,525
1511,524
1512,513
1513,486
1514,472
1515,459
1516,451
1517,463
1518,468
1519,472
1520,469
1521,476
1522,486
1523,489
1524,504
1525,511
1526,514
1527,509
1528,508
1529,519
1530,527
1531,514
1532,509
1533,503
1534,496
1535,495
1536,500
1537,516
1538,540
1539,562
1540,583
1541,572
1542,548
1543,538
1544,547
1545,544
1546,534
1547,521
1548,502
1549,499
1550,500
1551,515
1552,508
1553,480
1554,474
1555,482
1556,483
1557,479
1558,483
1559,497
1560,497
1561,504
1562,508
1563,500
1564,502
1565,495
1566,490
1567,472
1568,470
1569,475
1570,487
1571,489
1572,484
1573,491
1574,498
1575,504
1576,510
1577,518
1578,528
1579,545
1580,561
1581,566
1582,569
1583,558
1584,550
1585,536
1586,521
1587,515
1588,500
1589,495
1590,487
1591,457
1592,429
1593,419
1594,434
1595,459
1596,476
1597,478
1598,470
1599,463
1600,464
1601,465
1602,471
1603,477
1604,501
1605,518
1606,526
1607,533
1608,529
1609,535
1610,541
1611,543
1612,529
1613,493
1614,484
1615,487
1616,489
1617,485
1618,462
1619,450
1620,455
1621,464
1622,466
1623,467
1624,491
1625,511
1626,521
1627,513
1628,491
1629,484
1630,490
1631,502
1632,500
1633,496
1634,504
1635,516
1636,535
1637,529
1638,523
1639,519
1640,521
1641,532
1642,527
1643,524
1644,529
1645,536
1646,539
1647,537
1648,543
1649,557
1650,566
1651,578
1652,582
1653,566
1654,558
1655,539
1656,527
1657,498
1658,464
1659,467
1660,481
1661,484
1662,475
1663,470
1664,493
1665,518
1666,531
1667,535
1668,516
1669,504
1670,502
1671,510
1672,519
1673,522
1674,517
1675,509
1676,504
1677,505
1678,503
1679,507
1680,497
1681,486
1682,482
1683,470
1684,469
1685,476
1686,470
1687,463
1688,446
1689,439
1690,438
1691,440
1692,434
1693,425
1694,428
1695,451
1696,475
1697,477
1698,471
1699,477
1700,478
1701,476
1702,463
1703,439
1704,433
1705,433
1706,449
1707,448
1708,454
1709,464
1710,478
1711,497
1712,499
1713,493
1714,488
1715,483
1716,484
1717,471
1718,461
1719,462
1720,470
1721,481
1722,498
1723,519
1724,544
1725,572
1726,586
1727,593
1728,602
1729,613
1730,621
1731,626
1732,620
1733,592
1734,570
1735,563
1736,566
1737,553
1738,516
1739,503
1740,495
1741,496
1742,497
1743,502
1744,508
1745,524
1746,519
1747,512
1748,472
1749,462
1750,464
1751,480
1752,488
1753,500
1754,524
1755,545
1756,553
1757,540
1758,518
1759,507
1760,515
1761,526
1762,535
1763,536
1764,531
1765,523
1766,521
1767,527
1768,527
1769,531
1770,529
1771,526
1772,527
1773,540
1774,567
1775,572
1776,564
1777,563
1778,565
1779,566
1780,564
1781,569
1782,584
1783,580
1784,583
1785,588
1786,583
1787,579
1788,578
1789,586
1790,595
1791,584
1792,577
1793,566
1794,558
1795,545
1796,533
1797,517
1798,497
1799,497
1800,505
1801,517
1802,525
1803,527
1804,532
1805,549
1806,561
1807,569
1808,556
1809,540
1810,512
1811,486
1812,462
1813,440
1814,460
1815,470
1816,472
1817,476
1818,470
1819,470
1820,479
1821,487
1822,489
1823,480
1824,489
1825,495
1826,510
1827,516
1828,508
1829,518
1830,527
1831,536
1832,548
1833,545
1834,544
1835,547
1836,546
1837,511
1838,451
1839,415
1840,393
1841,391
1842,391
1843,400
1844,403
1845,398
1846,407
1847,417
1848,424
1849,431
1850,432
1851,439
1852,449
1853,449
1854,447
1855,440
1856,436
1857,424
1858,411
1859,404
1860,399
1861,407
1862,411
1863,418
1864,426
1865,437
1866,457
1867,479
1868,487
1869,488
1870,495
1871,514
1872,516
1873,508
1874,512
1875,519
1876,518
1877,526
1878,532
1879,538
1880,528
1881,524
1882,530
1883,521
1884,518
1885,513
1886,498
1887,491
1888,500
1889,524
1890,520
1891,524
1892,537
1893,539
1894,540
1895,529
1896,521
1897,517
1898,504
1899,505
1900,514
1901,525
1902,530
1903,527
1904,540
1905,559
1906,574
1907,560
1908,531
1909,524
1910,530
1911,531
1912,517
1913,496
1914,499
1915,515
1916,507
1917,505
1918,490
1919,499
1920,514
1921,531
1922,542
1923,530
1924,526
1925,529
1926,534
1927,537
1928,531
1929,523
1930,524
1931,523
1932,522
1933,492
1934,483
1935,481
1936,484
1937,476
1938,465
1939,483
1940,516
1941,547
1942,562
1943,577
1944,592
1945,590
1946,569
1947,549
1948,527
1949,532
1950,518
1951,516
1952,519
1953,510
1954,497
1955,485
1956,467
1957,468
1958,483
1959,493
1960,491
1961,484
1962,480
1963,460
1964,453
1965,447
1966,435
1967,438
1968,451
1969,477
1970,508
1971,538
1972,545
1973,540
1974,539
1975,546
1976,560
1977,568
1978,543
1979,536
1980,531
1981,535
1982,540
1983,532
1984,535
1985,543
1986,558
1987,564
1988,557
1989,546
1990,546
1991,555
1992,552
1993,543
1994,515
1995,504
1996,496
1997,486
1998,454
1999,441
