timestamp,signal
0,556
1,549
2,552
3,543
4,520
5,496
6,476
7,479
8,514
9,523
10,531
11,517
12,497
13,483
14,467
15,473
16,478
17,493
18,501
19,503
20,503
21,499
22,511
23,512
24,511
25,514
26,519
27,528
28,531
29,521
30,528
31,529
32,519
33,512
34,511
35,503
36,484
37,474
38,489
39,499
40,513
41,515
42,518
43,522
44,514
45,497
46,468
47,460
48,458
49,457
50,464
51,467
52,471
53,475
54,464
55,464
56,463
57,470
58,485
59,507
60,528
61,536
62,542
63,548
64,548
65,550
66,538
67,527
68,527
69,514
70,505
71,504
72,510
73,519
74,524
75,530
76,520
77,513
78,512
79,522
80,520
81,497
82,493
83,486
84,483
85,470
86,451
87,448
88,458
89,491
90,535
91,547
92,555
93,557
94,546
95,534
96,516
97,503
98,487
99,476
100,483
101,473
102,467
103,471
104,471
105,466
106,449
107,441
108,427
109,425
110,417
111,415
112,434
113,463
114,476
115,489
116,468
117,447
118,445
119,439
120,438
121,441
122,443
123,451
124,478
125,508
126,531
127,540
128,542
129,552
130,560
131,561
132,556
133,559
134,551
135,531
136,526
137,530
138,530
139,527
140,524
141,516
142,528
143,538
144,547
145,552
146,542
147,537
148,538
149,519
150,509
151,482
152,468
153,464
154,458
155,457
156,447
157,456
158,467
159,476
160,498
161,510
162,511
163,516
164,517
165,525
166,531
167,540
168,545
169,541
170,542
171,548
172,530
173,529
174,526
175,542
176,558
177,568
178,557
179,534
180,524
181,509
182,493
183,484
184,482
185,487
186,492
187,503
188,523
189,561
190,578
191,575
192,555
193,533
194,536
195,534
196,525
197,531
198,543
199,551
200,556
201,552
202,546
203,519
204,475
205,444
206,445
207,473
208,465
209,469
210,486
211,494
212,499
213,486
214,480
215,502
216,510
217,511
218,524
219,534
220,535
221,510
222,505
223,520
224,529
225,531
226,507
227,492
228,492
229,489
230,491
231,500
232,507
233,512
234,516
235,496
236,483
237,484
238,498
239,535
240,545
241,533
242,525
243,527
244,546
245,567
246,572
247,582
248,572
249,543
250,522
251,500
252,490
253,488
254,479
255,492
256,504
257,509
258,503
259,489
260,471
261,468
262,481
263,481
264,473
265,471
266,463
267,467
268,478
269,484
270,497
271,505
272,516
273,529
274,548
275,558
276,550
277,551
278,552
279,555
280,560
281,543
282,519
283,513
284,501
285,494
286,488
287,494
288,503
289,486
290,486
291,491
292,502
293,514
294,535
295,558
296,560
297,571
298,578
299,568
300,537
301,529
302,531
303,527
304,503
305,488
306,489
307,505
308,525
309,517
310,521
311,526
312,537
313,550
314,550
315,548
316,536
317,523
318,518
319,498
320,484
321,477
322,491
323,499
324,505
325,515
326,507
327,508
328,512
329,517
330,526
331,509
332,492
333,487
334,482
335,471
336,469
337,481
338,492
339,495
340,484
341,459
342,445
343,430
344,423
345,431
346,433
347,453
348,484
349,514
350,535
351,533
352,519
353,515
354,518
355,518
356,508
357,495
358,481
359,472
360,466
361,462
362,477
363,499
364,518
365,531
366,531
367,539
368,532
369,529
370,546
371,539
372,536
373,542
374,558
375,564
376,551
377,557
378,561
379,563
380,565
381,551
382,545
383,539
384,515
385,480
386,450
387,455
388,475
389,494
390,519
391,537
392,561
393,582
394,589
395,589
396,582
397,579
398,560
399,538
400,525
401,520
402,516
403,519
404,530
405,525
406,521
407,515
408,512
409,517
410,516
411,509
412,500
413,491
414,500
415,517
416,532
417,548
418,553
419,552
420,553
421,540
422,533
423,534
424,528
425,523
426,506
427,507
428,516
429,536
430,560
431,567
432,579
433,583
434,579
435,583
436,583
437,582
438,573
439,556
440,543
441,529
442,511
443,499
444,497
445,506
446,508
447,520
448,532
449,543
450,552
451,543
452,520
453,497
454,472
455,478
456,495
457,528
458,556
459,576
460,576
461,556
462,523
463,502
464,511
465,526
466,526
467,510
468,506
469,514
470,523
471,522
472,514
473,502
474,499
475,490
476,479
477,478
478,480
479,491
480,496
481,484
482,481
483,472
484,466
485,455
486,430
487,432
488,442
489,458
490,474
491,479
492,489
493,502
494,507
495,506
496,493
497,492
498,500
499,500
500,506
501,498
502,507
503,515
504,511
505,502
506,487
507,484
508,491
509,512
510,516
511,512
512,516
513,526
514,534
515,531
516,524
517,522
518,515
519,511
520,516
521,509
522,498
523,487
524,489
525,477
526,460
527,445
528,448
529,476
530,498
531,495
532,481
533,466
534,470
535,480
536,485
537,479
538,481
539,485
540,484
541,476
542,495
543,509
544,497
545,509
546,513
547,519
548,521
549,514
550,523
551,531
552,546
553,553
554,542
555,527
556,508
557,501
558,499
559,500
560,509
561,511
562,522
563,530
564,526
565,521
566,507
567,500
568,499
569,503
570,521
571,516
572,521
573,516
574,503
575,496
576,488
577,488
578,491
579,486
580,476
581,444
582,441
583,450
584,465
585,476
586,483
587,495
588,512
589,527
590,503
591,471
592,450
593,451
594,473
595,503
596,508
597,516
598,542
599,575
600,590
601,581
602,577
603,572
604,560
605,545
606,519
607,513
608,506
609,508
610,501
611,476
612,457
613,448
614,448
615,442
616,443
617,457
618,471
619,488
620,517
621,521
622,524
623,523
624,510
625,496
626,467
627,452
628,450
629,446
630,450
631,443
632,451
633,465
634,472
635,489
636,504
637,532
638,550
639,556
640,556
641,543
642,545
643,529
644,521
645,525
646,515
647,518
648,524
649,527
650,534
651,530
652,533
653,535
654,524
655,514
656,496
657,502
658,513
659,530
660,559
661,556
662,558
663,548
664,530
665,538
666,532
667,540
668,552
669,538
670,533
671,527
672,529
673,545
674,551
675,548
676,551
677,568
678,579
679,564
680,543
681,499
682,466
683,466
684,475
685,496
686,508
687,528
688,538
689,536
690,532
691,519
692,505
693,505
694,484
695,499
696,512
697,516
698,521
699,522
700,530
701,538
702,552
703,549
704,526
705,517
706,505
707,508
708,509
709,487
710,478
711,481
712,504
713,531
714,548
715,570
716,561
717,560
718,551
719,527
720,514
721,500
722,499
723,505
724,500
725,504
726,508
727,512
728,511
729,488
730,487
731,488
732,496
733,496
734,491
735,497
736,496
737,499
738,502
739,498
740,489
741,484
742,474
743,460
744,428
745,410
746,415
747,405
748,413
749,412
750,427
751,415
752,424
753,430
754,420
755,425
756,434
757,455
758,464
759,455
760,460
761,454
762,463
763,472
764,478
765,496
766,499
767,491
768,487
769,474
770,465
771,459
772,476
773,498
774,503
775,517
776,533
777,549
778,569
779,575
780,576
781,562
782,545
783,531
784,510
785,491
786,471
787,485
788,498
789,513
790,523
791,521
792,508
793,503
794,508
795,517
796,531
797,549
798,570
799,581
800,583
801,580
802,590
803,597
804,599
805,595
806,579
807,559
808,533
809,497
810,471
811,449
812,442
813,446
814,463
815,472
816,465
817,467
818,482
819,501
820,520
821,514
822,511
823,503
824,496
825,502
826,497
827,491
828,489
829,482
830,484
831,483
832,499
833,519
834,528
835,521
836,492
837,482
838,476
839,472
840,467
841,448
842,448
843,449
844,461
845,482
846,489
847,500
848,509
849,514
850,521
851,527
852,531
853,527
854,530
855,536
856,524
857,511
858,518
859,530
860,540
861,531
862,530
863,530
864,525
865,527
866,523
867,527
868,528
869,533
870,542
871,540
872,561
873,588
874,597
875,589
876,560
877,553
878,545
879,536
880,542
881,551
882,565
883,581
884,572
885,551
886,521
887,503
888,496
889,492
890,499
891,508
892,524
893,533
894,509
895,476
896,458
897,463
898,455
899,446
900,458
901,462
902,484
903,492
904,495
905,499
906,499
907,509
908,515
909,518
910,529
911,545
912,563
913,582
914,587
915,594
916,585
917,573
918,562
919,553
920,555
921,558
922,560
923,553
924,542
925,531
926,507
927,499
928,493
929,477
930,468
931,463
932,472
933,484
934,494
935,497
936,502
937,523
938,536
939,541
940,542
941,540
942,549
943,547
944,541
945,509
946,468
947,450
948,447
949,466
950,482
951,496
952,500
953,497
954,502
955,495
956,479
957,485
958,495
959,500
960,492
961,462
962,439
963,429
964,434
965,450
966,461
967,482
968,488
969,473
970,476
971,480
972,488
973,496
974,505
975,489
976,484
977,480
978,487
979,505
980,524
981,516
982,518
983,514
984,515
985,507
986,478
987,468
988,462
989,459
990,455
991,433
992,426
993,436
994,454
995,455
996,432
997,422
998,417
999,430
1000,461
1001,476
1002,492
1003,505
1004,513
1005,528
1006,521
1007,521
1008,501
1009,475
1010,467
1011,459
1012,464
1013,483
1014,501
1015,511
1016,499
1017,505
1018,526
1019,531
1020,524
1021,507
1022,505
1023,505
1024,496
1025,505
1026,519
1027,541
1028,556
1029,563
1030,573
1031,567
1032,561
1033,561
1034,560
1035,563
1036,562
1037,561
1038,548
1039,534
1040,524
1041,517
1042,525
1043,535
1044,528
1045,528
1046,529
1047,537
1048,547
1049,560
1050,573
1051,569
1052,571
1053,569
1054,560
1055,562
1056,561
1057,562
1058,556
1059,552
1060,550
1061,535
1062,532
1063,526
1064,512
1065,503
1066,491
1067,492
1068,506
1069,501
1070,480
1071,451
1072,417
1073,420
1074,435
1075,457
1076,461
1077,472
1078,489
1079,508
1080,524
1081,532
1082,542
1083,556
1084,553
1085,556
1086,547
1087,538
1088,522
1089,524
1090,528
1091,531
1092,538
1093,548
1094,536
1095,528
1096,522
1097,519
1098,527
1099,520
1100,514
1101,524
1102,544
1103,558
1104,529
1105,509
1106,504
1107,515
1108,508
1109,497
1110,492
1111,499
1112,513
1113,528
1114,531
1115,531
1116,523
1117,528
1118,539
1119,527
1120,515
1121,500
1122,505
1123,516
1124,508
1125,507
1126,494
1127,493
1128,491
1129,487
1130,498
1131,505
1132,498
1133,508
1134,488
1135,487
1136,480
1137,491
1138,504
1139,499
1140,490
1141,472
1142,475
1143,468
1144,467
1145,466
1146,460
1147,458
1148,472
1149,476
1150,478
1151,474
1152,483
1153,502
1154,510
1155,515
1156,512
1157,519
1158,534
1159,542
1160,560
1161,566
1162,549
1163,531
1164,510
1165,478
1166,440
1167,432
1168,434
1169,449
1170,457
1171,455
1172,460
1173,470
1174,490
1175,510
1176,510
1177,497
1178,484
1179,483
1180,484
1181,464
1182,454
1183,446
1184,431
1185,418
1186,412
1187,425
1188,444
1189,471
1190,498
1191,521
1192,524
1193,518
1194,529
1195,525
1196,503
1197,479
1198,469
1199,479
1200,506
1201,516
1202,535
1203,559
1204,553
1205,556
1206,555
1207,551
1208,554
1209,553
1210,568
1211,557
1212,547
1213,534
1214,540
1215,546
1216,546
1217,553
1218,555
1219,547
1220,547
1221,545
1222,536
1223,532
1224,522
1225,518
1226,501
1227,484
1228,485
1229,489
1230,499
1231,492
1232,481
1233,475
1234,469
1235,475
1236,470
1237,476
1238,497
1239,518
1240,529
1241,505
1242,486
1243,489
1244,499
1245,511
1246,490
1247,483
1248,488
1249,508
1250,515
1251,510
1252,505
1253,488
1254,471
1255,466
1256,460
1257,468
1258,491
1259,514
1260,542
1261,552
1262,555
1263,547
1264,522
1265,520
1266,517
1267,504
1268,493
1269,479
1270,492
1271,492
1272,492
1273,496
1274,500
1275,513
1276,515
1277,515
1278,511
1279,514
1280,528
1281,537
1282,548
1283,554
1284,560
1285,567
1286,561
1287,559
1288,563
1289,561
1290,551
1291,536
1292,524
1293,515
1294,502
1295,496
1296,492
1297,486
1298,487
1299,512
1300,512
1301,515
1302,520
1303,532
1304,543
1305,546
1306,543
1307,535
1308,528
1309,523
1310,510
1311,508
1312,500
1313,494
1314,486
1315,486
1316,492
1317,514
1318,532
1319,542
1320,547
1321,530
1322,534
1323,525
1324,534
1325,532
1326,528
1327,535
1328,543
1329,543
1330,548
1331,545
1332,544
1333,547
1334,545
1335,551
1336,569
1337,588
1338,584
1339,586
1340,577
1341,566
1342,546
1343,523
1344,520
1345,536
1346,543
1347,559
1348,565
1349,564
1350,552
1351,536
1352,510
1353,503
1354,502
1355,510
1356,513
1357,517
1358,511
1359,514
1360,518
1361,516
1362,520
1363,512
1364,499
1365,499
1366,498
1367,500
1368,501
1369,499
1370,502
1371,505
1372,494
1373,494
1374,490
1375,492
1376,497
1377,502
1378,513
1379,520
1380,533
1381,534
1382,532
1383,519
1384,492
1385,476
1386,474
1387,477
1388,488
1389,485
1390,484
1391,475
1392,471
1393,471
1394,474
1395,478
1396,473
1397,475
1398,492
1399,509
1400,512
1401,500
1402,499
1403,490
1404,477
1405,474
1406,459
1407,449
1408,455
1409,473
1410,495
1411,501
1412,505
1413,512
1414,510
1415,514
1416,513
1417,529
1418,539
1419,545
1420,539
1421,525
1422,518
1423,517
1424,507
1425,506
1426,494
1427,490
1428,479
1429,472
1430,473
1431,463
1432,459
1433,460
1434,469
1435,477
1436,455
1437,435
1438,438
1439,427
1440,417
1441,414
1442,421
1443,447
1444,460
1445,462
1446,455
1447,461
1448,482
1449,492
1450,496
1451,480
1452,483
1453,519
1454,533
1455,540
1456,524
1457,512
1458,508
1459,491
1460,487
1461,491
1462,510
1463,529
1464,523
1465,512
1466,495
1467,491
1468,486
1469,494
1470,508
1471,516
1472,521
1473,533
1474,537
1475,539
1476,547
1477,545
1478,528
1479,511
1480,520
1481,516
1482,516
1483,514
1484,509
1485,522
1486,536
1487,543
1488,544
1489,539
1490,547
1491,550
1492,547
1493,542
1494,532
1495,526
1496,526
1497,514
1498,527
1499,536
1500,536
1501,525
1502,521
1503,519
1504,515
1505,506
1506,492
1507,481
1508,483
1509,489
1510,497
1511,504
1512,506
1513,518
1514,530
1515,556
1516,551
1517,551
1518,542
1519,509
1520,472
1521,440
1522,432
1523,434
1524,449
1525,456
1526,453
1527,453
1528,465
1529,490
1530,513
1531,516
1532,515
1533,525
1534,535
1535,540
1536,542
1537,550
1538,551
1539,536
1540,523
1541,520
1542,514
1543,515
1544,526
1545,519
1546,492
1547,490
1548,476
1549,480
1550,492
1551,500
1552,511
1553,509
1554,519
1555,530
1556,544
1557,544
1558,536
1559,530
1560,532
1561,531
1562,539
1563,545
1564,542
1565,544
1566,520
1567,519
1568,532
1569,545
1570,543
1571,517
1572,500
1573,508
1574,536
1575,552
1576,555
1577,547
1578,548
1579,543
1580,534
1581,529
1582,527
1583,521
1584,523
1585,543
1586,546
1587,546
1588,531
1589,516
1590,530
1591,514
1592,510
1593,518
1594,527
1595,529
1596,527
1597,531
1598,529
1599,532
1600,534
1601,537
1602,540
1603,547
1604,544
1605,524
1606,502
1607,503
1608,507
1609,498
1610,487
1611,471
1612,473
1613,491
1614,508
1615,527
1616,526
1617,527
1618,531
1619,515
1620,507
1621,504
1622,496
1623,493
1624,469
1625,468
1626,484
1627,509
1628,529
1629,527
1630,523
1631,514
1632,526
1633,555
1634,522
1635,487
1636,470
1637,471
1638,481
1639,473
1640,457
1641,429
1642,419
1643,433
1644,440
1645,451
1646,459
1647,480
1648,500
1649,511
1650,508
1651,481
1652,467
1653,471
1654,485
1655,502
1656,495
1657,498
1658,516
1659,520
1660,522
1661,507
1662,497
1663,504
1664,496
1665,487
1666,478
1667,478
1668,473
1669,461
1670,459
1671,460
1672,464
1673,443
1674,437
1675,440
1676,429
1677,423
1678,426
1679,433
1680,451
1681,457
1682,471
1683,480
1684,501
1685,504
1686,504
1687,516
1688,530
1689,523
1690,517
1691,508
1692,512
1693,524
1694,540
1695,549
1696,558
1697,564
1698,564
1699,554
1700,560
1701,565
1702,570
1703,574
1704,576
1705,576
1706,572
1707,575
1708,574
1709,571
1710,578
1711,588
1712,601
1713,605
1714,583
1715,558
1716,543
1717,536
1718,533
1719,508
1720,481
1721,459
1722,452
1723,466
1724,489
1725,511
1726,520
1727,529
1728,539
1729,534
1730,539
1731,545
1732,544
1733,531
1734,529
1735,496
1736,455
1737,439
1738,428
1739,440
1740,471
1741,483
1742,487
1743,494
1744,493
1745,503
1746,501
1747,499
1748,513
1749,523
1750,527
1751,526
1752,535
1753,536
1754,536
1755,548
1756,554
1757,558
1758,563
1759,564
1760,572
1761,566
1762,547
1763,534
1764,519
1765,516
1766,508
1767,511
1768,528
1769,546
1770,557
1771,566
1772,579
1773,572
1774,572
1775,574
1776,563
1777,551
1778,548
1779,542
1780,553
1781,555
1782,538
1783,522
1784,499
1785,489
1786,483
1787,494
1788,504
1789,495
1790,494
1791,493
1792,504
1793,508
1794,483
1795,458
1796,442
1797,448
1798,449
1799,439
1800,443
1801,457
1802,468
1803,463
1804,474
1805,485
1806,482
1807,480
1808,483
1809,499
1810,506
1811,503
1812,501
1813,502
1814,509
1815,517
1816,509
1817,508
1818,499
1819,464
1820,432
1821,428
1822,448
1823,479
1824,505
1825,509
1826,525
1827,534
1828,535
1829,531
1830,515
1831,516
1832,523
1833,519
1834,526
1835,520
1836,514
1837,518
1838,519
1839,531
1840,535
1841,529
1842,511
1843,498
1844,505
1845,513
1846,488
1847,493
1848,511
1849,509
1850,508
1851,510
1852,519
1853,515
1854,501
1855,490
1856,483
1857,483
1858,472
1859,463
1860,465
1861,472
1862,488
1863,486
1864,472
1865,473
1866,467
1867,455
1868,451
1869,452
1870,470
1871,451
1872,440
1873,448
1874,481
1875,500
1876,508
1877,520
1878,524
1879,515
1880,517
1881,510
1882,496
1883,496
1884,506
1885,515
1886,512
1887,514
1888,514
1889,510
1890,510
1891,489
1892,470
1893,461
1894,455
1895,446
1896,446
1897,460
1898,489
1899,510
1900,512
1901,491
1902,486
1903,483
1904,479
1905,479
1906,472
1907,470
1908,471
1909,469
1910,480
1911,505
1912,541
1913,563
1914,553
1915,548
1916,539
1917,531
1918,540
1919,552
1920,561
1921,582
1922,600
1923,608
1924,586
1925,578
1926,562
1927,562
1928,543
1929,515
1930,489
1931,478
1932,502
1933,527
1934,525
1935,519
1936,514
1937,521
1938,530
1939,536
1940,535
1941,521
1942,529
1943,547
1944,542
1945,549
1946,554
1947,561
1948,560
1949,554
1950,544
1951,526
1952,527
1953,531
1954,534
1955,536
1956,523
1957,511
1958,483
1959,470
1960,466
1961,472
1962,485
1963,500
1964,520
1965,526
1966,521
1967,519
1968,515
1969,536
1970,556
1971,559
1972,568
1973,563
1974,575
1975,579
1976,580
1977,574
1978,564
1979,564
1980,558
1981,540
1982,534
1983,535
1984,525
1985,518
1986,503
1987,502
1988,514
1989,528
1990,540
1991,536
1992,542
1993,552
1994,552
1995,556
1996,553
1997,557
1998,569
1999,575
