timestamp,signal
0,483
1,507
2,538
3,551
4,547
5,548
6,552
7,553
8,553
9,554
10,557
11,567
12,567
13,561
14,528
15,506
16,489
17,476
18,480
19,484
20,480
21,475
22,468
23,473
24,470
25,465
26,453
27,457
28,456
29,463
30,478
31,465
32,460
33,456
34,445
35,446
36,457
37,477
38,490
39,496
40,494
41,495
42,507
43,516
44,517
45,526
46,531
47,529
48,521
49,517
50,513
51,513
52,519
53,523
54,517
55,521
56,520
57,515
58,492
59,462
60,461
61,455
62,470
63,488
64,500
65,488
66,486
67,484
68,477
69,467
70,473
71,483
72,488
73,483
74,470
75,445
76,435
77,444
78,454
79,461
80,476
81,500
82,531
83,560
84,564
85,550
86,539
87,535
88,529
89,522
90,525
91,527
92,513
93,489
94,480
95,482
96,490
97,490
98,474
99,466
100,457
101,454
102,458
103,449
104,457
105,472
106,476
107,477
108,486
109,488
110,492
111,493
112,492
113,472
114,464
115,470
116,489
117,496
118,506
119,513
120,514
121,515
122,514
123,513
124,506
125,505
126,511
127,528
128,532
129,524
130,519
131,513
132,504
133,495
134,486
135,488
136,500
137,509
138,510
139,508
140,502
141,502
142,494
143,482
144,476
145,480
146,486
147,498
148,510
149,503
150,498
151,502
152,513
153,504
154,490
155,488
156,492
157,494
158,500
159,504
160,505
161,518
162,540
163,545
164,542
165,544
166,552
167,555
168,557
169,568
170,575
171,578
172,588
173,591
174,580
175,579
176,591
177,598
178,593
179,574
180,563
181,563
182,559
183,545
184,542
185,539
186,532
187,526
188,508
189,492
190,481
191,477
192,483
193,484
194,491
195,495
196,500
197,499
198,477
199,469
200,473
201,483
202,477
203,473
204,462
205,465
206,472
207,476
208,482
209,487
210,499
211,510
212,519
213,514
214,516
215,538
216,548
217,547
218,554
219,543
220,543
221,524
222,537
223,545
224,544
225,536
226,543
227,556
228,560
229,549
230,541
231,535
232,534
233,531
234,520
235,516
236,524
237,543
238,547
239,545
240,544
241,550
242,558
243,577
244,595
245,598
246,587
247,583
248,591
249,593
250,598
251,597
252,583
253,569
254,568
255,566
256,551
257,534
258,502
259,465
260,446
261,447
262,452
263,456
264,463
265,475
266,492
267,503
268,505
269,491
270,488
271,488
272,472
273,456
274,450
275,447
276,460
277,479
278,485
279,489
280,507
281,512
282,515
283,527
284,527
285,528
286,527
287,530
288,541
289,542
290,552
291,570
292,577
293,562
294,539
295,530
296,523
297,527
298,531
299,499
300,480
301,481
302,496
303,502
304,508
305,513
306,507
307,503
308,499
309,485
310,478
311,488
312,494
313,483
314,476
315,484
316,498
317,512
318,515
319,527
320,538
321,532
322,534
323,521
324,507
325,522
326,536
327,548
328,555
329,555
330,555
331,562
332,570
333,588
334,607
335,605
336,593
337,582
338,568
339,555
340,536
341,513
342,486
343,455
344,431
345,434
346,461
347,489
348,497
349,510
350,534
351,545
352,544
353,535
354,526
355,526
356,536
357,542
358,551
359,555
360,542
361,520
362,502
363,508
364,524
365,532
366,546
367,545
368,546
369,532
370,523
371,524
372,528
373,537
374,540
375,541
376,552
377,558
378,547
379,522
380,504
381,498
382,495
383,486
384,479
385,473
386,472
387,473
388,472
389,470
390,478
391,498
392,508
393,504
394,495
395,481
396,481
397,482
398,491
399,505
400,517
401,520
402,522
403,512
404,492
405,496
406,490
407,483
408,493
409,499
410,508
411,512
412,523
413,541
414,561
415,562
416,555
417,550
418,541
419,523
420,519
421,537
422,552
423,548
424,544
425,556
426,577
427,589
428,590
429,568
430,553
431,536
432,525
433,521
434,515
435,512
436,518
437,517
438,513
439,498
440,486
441,478
442,472
443,464
444,454
445,443
446,446
447,458
448,456
449,440
450,438
451,437
452,441
453,446
454,454
455,476
456,506
457,534
458,547
459,542
460,539
461,540
462,539
463,522
464,511
465,505
466,506
467,512
468,505
469,501
470,508
471,503
472,505
473,493
474,489
475,493
476,504
477,521
478,502
479,492
480,502
481,514
482,510
483,500
484,483
485,480
486,492
487,499
488,505
489,503
490,490
491,488
492,496
493,518
494,530
495,539
496,550
497,542
498,544
499,543
500,541
501,541
502,537
503,530
504,522
505,526
506,517
507,495
508,467
509,448
510,443
511,443
512,457
513,449
514,428
515,423
516,441
517,468
518,493
519,488
520,478
521,471
522,474
523,477
524,466
525,453
526,440
527,436
528,438
529,458
530,488
531,504
532,511
533,497
534,486
535,476
536,469
537,479
538,448
539,442
540,455
541,468
542,483
543,506
544,522
545,535
546,542
547,550
548,562
549,546
550,546
551,551
552,550
553,535
554,521
555,524
556,528
557,532
558,523
559,519
560,512
561,511
562,511
563,503
564,494
565,487
566,481
567,475
568,470
569,459
570,448
571,444
572,450
573,440
574,444
575,456
576,457
577,444
578,415
579,405
580,417
581,428
582,441
583,438
584,440
585,455
586,473
587,489
588,509
589,521
590,532
591,530
592,521
593,501
594,501
595,497
596,492
597,495
598,492
599,489
600,488
601,503
602,522
603,530
604,539
605,542
606,555
607,560
608,553
609,547
610,539
611,540
612,542
613,554
614,557
615,551
616,543
617,541
618,546
619,552
620,551
621,562
622,568
623,584
624,595
625,595
626,589
627,573
628,563
629,562
630,568
631,563
632,552
633,537
634,531
635,524
636,515
637,512
638,503
639,485
640,478
641,478
642,472
643,468
644,465
645,483
646,496
647,504
648,502
649,489
650,486
651,490
652,490
653,489
654,484
655,476
656,473
657,476
658,468
659,457
660,451
661,445
662,462
663,456
664,464
665,470
666,472
667,468
668,467
669,470
670,487
671,508
672,512
673,506
674,498
675,502
676,515
677,540
678,553
679,552
680,553
681,558
682,551
683,544
684,540
685,540
686,537
687,527
688,509
689,482
690,470
691,472
692,482
693,497
694,505
695,518
696,537
697,536
698,541
699,542
700,549
701,554
702,564
703,576
704,575
705,572
706,572
707,565
708,562
709,556
710,547
711,553
712,536
713,534
714,526
715,520
716,513
717,506
718,502
719,473
720,438
721,421
722,406
723,406
724,418
725,439
726,441
727,454
728,462
729,472
730,477
731,485
732,498
733,498
734,498
735,501
736,511
737,520
738,521
739,517
740,511
741,508
742,518
743,510
744,480
745,464
746,472
747,482
748,489
749,494
750,488
751,486
752,482
753,480
754,472
755,474
756,490
757,500
758,497
759,487
760,487
761,482
762,478
763,474
764,465
765,473
766,496
767,517
768,527
769,515
770,521
771,540
772,548
773,526
774,497
775,480
776,472
777,475
778,482
779,493
780,506
781,525
782,540
783,528
784,532
785,548
786,561
787,566
788,553
789,535
790,531
791,535
792,539
793,524
794,514
795,511
796,508
797,502
798,489
799,461
800,463
801,482
802,500
803,508
804,514
805,524
806,523
807,539
808,548
809,555
810,547
811,547
812,560
813,558
814,563
815,563
816,557
817,542
818,532
819,533
820,541
821,548
822,553
823,550
824,542
825,555
826,558
827,577
828,584
829,568
830,542
831,519
832,515
833,514
834,515
835,532
836,539
837,534
838,533
839,518
840,511
841,510
842,522
843,533
844,527
845,527
846,515
847,514
848,524
849,540
850,554
851,553
852,542
853,535
854,535
855,539
856,528
857,506
858,494
859,484
860,463
861,455
862,467
863,483
864,487
865,498
866,515
867,539
868,572
869,588
870,593
871,589
872,580
873,547
874,501
875,481
876,469
877,464
878,455
879,455
880,467
881,479
882,476
883,464
884,454
885,457
886,455
887,448
888,445
889,448
890,456
891,471
892,489
893,497
894,486
895,476
896,477
897,488
898,484
899,475
900,484
901,499
902,506
903,504
904,507
905,514
906,524
907,536
908,529
909,520
910,507
911,491
912,485
913,472
914,468
915,478
916,492
917,505
918,515
919,496
920,501
921,496
922,497
923,488
924,486
925,492
926,501
927,508
928,508
929,502
930,516
931,537
932,557
933,565
934,556
935,538
936,536
937,539
938,536
939,527
940,533
941,534
942,534
943,529
944,519
945,512
946,508
947,508
948,508
949,502
950,494
951,515
952,523
953,529
954,515
955,498
956,495
957,502
958,504
959,492
960,478
961,473
962,481
963,486
964,481
965,487
966,510
967,519
968,514
969,508
970,503
971,496
972,491
973,496
974,472
975,461
976,458
977,456
978,452
979,463
980,484
981,506
982,505
983,491
984,479
985,489
986,505
987,507
988,508
989,501
990,491
991,487
992,493
993,493
994,483
995,473
996,466
997,469
998,478
999,490
1000,523
1001,545
1002,569
1003,569
1004,548
1005,533
1006,543
1007,536
1008,519
1009,505
1010,504
1011,504
1012,508
1013,514
1014,520
1015,527
1016,532
1017,531
1018,540
1019,536
1020,537
1021,523
1022,509
1023,512
1024,537
1025,566
1026,581
1027,575
1028,560
1029,555
1030,560
1031,558
1032,542
1033,538
1034,540
1035,533
1036,531
1037,521
1038,522
1039,527
1040,531
1041,534
1042,541
1043,525
1044,515
1045,518
1046,517
1047,531
1048,552
1049,573
1050,565
1051,565
1052,564
1053,555
1054,543
1055,540
1056,536
1057,534
1058,537
1059,534
1060,528
1061,524
1062,520
1063,513
1064,502
1065,497
1066,499
1067,512
1068,511
1069,503
1070,502
1071,513
1072,517
1073,507
1074,490
1075,481
1076,487
1077,494
1078,488
1079,480
1080,497
1081,525
1082,550
1083,556
1084,548
1085,549
1086,536
1087,529
1088,524
1089,512
1090,506
1091,498
1092,488
1093,480
1094,473
1095,467
1096,462
1097,471
1098,487
1099,502
1100,521
1101,530
1102,531
1103,539
1104,548
1105,557
1106,556
1107,532
1108,521
1109,520
1110,526
1111,539
1112,534
1113,533
1114,526
1115,525
1116,529
1117,540
1118,555
1119,580
1120,606
1121,618
1122,618
1123,607
1124,598
1125,587
1126,578
1127,563
1128,541
1129,515
1130,501
1131,487
1132,474
1133,467
1134,462
1135,461
1136,457
1137,467
1138,473
1139,480
1140,489
1141,497
1142,506
1143,518
1144,507
1145,500
1146,505
1147,516
1148,511
1149,499
1150,500
1151,495
1152,498
1153,502
1154,508
1155,512
1156,531
1157,534
1158,516
1159,488
1160,471
1161,465
1162,463
1163,445
1164,430
1165,445
1166,464
1167,476
1168,474
1169,464
1170,452
1171,446
1172,448
1173,443
1174,444
1175,457
1176,471
1177,490
1178,496
1179,500
1180,496
1181,487
1182,497
1183,493
1184,479
1185,471
1186,466
1187,470
1188,473
1189,464
1190,448
1191,455
1192,456
1193,440
1194,430
1195,438
1196,458
1197,468
1198,471
1199,467
1200,478
1201,510
1202,519
1203,517
1204,505
1205,493
1206,479
1207,447
1208,413
1209,382
1210,390
1211,409
1212,416
1213,423
1214,423
1215,437
1216,461
1217,489
1218,518
1219,537
1220,555
1221,563
1222,550
1223,526
1224,500
1225,496
1226,502
1227,509
1228,504
1229,504
1230,512
1231,516
1232,529
1233,520
1234,492
1235,476
1236,480
1237,488
1238,493
1239,494
1240,510
1241,533
1242,532
1243,521
1244,509
1245,499
1246,493
1247,491
1248,471
1249,448
1250,441
1251,451
1252,462
1253,461
1254,451
1255,461
1256,471
1257,513
1258,544
1259,540
1260,524
1261,513
1262,512
1263,520
1264,535
1265,538
1266,530
1267,528
1268,547
1269,567
1270,572
1271,568
1272,558
1273,553
1274,550
1275,551
1276,555
1277,557
1278,564
1279,559
1280,551
1281,542
1282,529
1283,508
1284,483
1285,488
1286,507
1287,521
1288,536
1289,548
1290,552
1291,560
1292,562
1293,542
1294,512
1295,500
1296,511
1297,519
1298,547
1299,560
1300,566
1301,561
1302,547
1303,541
1304,532
1305,533
1306,542
1307,552
1308,558
1309,547
1310,532
1311,512
1312,500
1313,508
1314,524
1315,532
1316,538
1317,551
1318,567
1319,575
1320,574
1321,545
1322,506
1323,480
1324,472
1325,476
1326,475
1327,479
1328,480
1329,472
1330,472
1331,485
1332,502
1333,500
1334,460
1335,443
1336,441
1337,448
1338,462
1339,472
1340,488
1341,499
1342,501
1343,502
1344,486
1345,472
1346,478
1347,490
1348,493
1349,481
1350,483
1351,497
1352,523
1353,535
1354,522
1355,501
1356,495
1357,491
1358,480
1359,473
1360,468
1361,466
1362,458
1363,451
1364,454
1365,462
1366,463
1367,470
1368,466
1369,454
1370,460
1371,472
1372,489
1373,492
1374,497
1375,491
1376,476
1377,469
1378,456
1379,455
1380,464
1381,476
1382,485
1383,495
1384,500
1385,517
1386,498
1387,487
1388,481
1389,477
1390,479
1391,470
1392,468
1393,485
1394,494
1395,508
1396,514
1397,521
1398,541
1399,544
1400,524
1401,502
1402,502
1403,504
1404,491
1405,487
1406,483
1407,464
1408,439
1409,422
1410,428
1411,441
1412,452
1413,455
1414,459
1415,474
1416,495
1417,508
1418,510
1419,501
1420,491
1421,488
1422,484
1423,481
1424,485
1425,494
1426,501
1427,510
1428,529
1429,537
1430,532
1431,531
1432,540
1433,538
1434,529
1435,524
1436,522
1437,528
1438,518
1439,503
1440,507
1441,511
1442,522
1443,527
1444,515
1445,513
1446,508
1447,488
1448,467
1449,458
1450,471
1451,499
1452,521
1453,504
1454,484
1455,491
1456,503
1457,520
1458,528
1459,519
1460,509
1461,524
1462,541
1463,540
1464,523
1465,516
1466,510
1467,514
1468,504
1469,481
1470,473
1471,470
1472,486
1473,496
1474,500
1475,511
1476,533
1477,563
1478,568
1479,574
1480,567
1481,548
1482,524
1483,525
1484,537
1485,547
1486,551
1487,557
1488,559
1489,560
1490,558
1491,552
1492,540
1493,526
1494,523
1495,536
1496,540
1497,539
1498,541
1499,537
1500,532
1501,526
1502,535
1503,550
1504,559
1505,565
1506,569
1507,566
1508,559
1509,554
1510,563
1511,562
1512,559
1513,545
1514,524
1515,507
1516,501
1517,497
1518,496
1519,494
1520,489
1521,478
1522,475
1523,470
1524,469
1525,472
1526,485
1527,500
1528,505
1529,516
1530,524
1531,534
1532,541
1533,535
1534,519
1535,506
1536,499
1537,503
1538,502
1539,498
1540,501
1541,499
1542,477
1543,458
1544,452
1545,463
1546,484
1547,515
1548,542
1549,553
1550,557
1551,554
1552,561
1553,560
1554,546
1555,539
1556,539
1557,539
1558,526
1559,508
1560,500
1561,505
1562,519
1563,526
1564,517
1565,517
1566,535
1567,561
1568,572
1569,575
1570,569
1571,556
1572,555
1573,562
1574,560
1575,566
1576,551
1577,538
1578,521
1579,512
1580,498
1581,495
1582,492
1583,497
1584,507
1585,512
1586,525
1587,538
1588,526
1589,517
1590,522
1591,522
1592,519
1593,514
1594,512
1595,519
1596,526
1597,532
1598,520
1599,491
1600,486
1601,486
1602,498
1603,502
1604,499
1605,500
1606,506
1607,515
1608,514
1609,516
1610,515
1611,518
1612,505
1613,522
1614,526
1615,537
1616,552
1617,554
1618,552
1619,525
1620,510
1621,497
1622,486
1623,479
1624,465
1625,463
1626,466
1627,471
1628,483
1629,467
1630,451
1631,437
1632,440
1633,448
1634,450
1635,459
1636,447
1637,430
1638,410
1639,391
1640,387
1641,398
1642,419
1643,423
1644,427
1645,448
1646,472
1647,492
1648,497
1649,508
1650,531
1651,534
1652,548
1653,571
1654,575
1655,572
1656,562
1657,551
1658,538
1659,532
1660,532
1661,538
1662,539
1663,529
1664,510
1665,509
1666,513
1667,520
1668,529
1669,537
1670,554
1671,560
1672,564
1673,574
1674,584
1675,589
1676,586
1677,589
1678,568
1679,570
1680,582
1681,591
1682,592
1683,591
1684,578
1685,560
1686,540
1687,521
1688,512
1689,502
1690,507
1691,526
1692,522
1693,535
1694,544
1695,556
1696,556
1697,558
1698,552
1699,550
1700,551
1701,557
1702,553
1703,533
1704,509
1705,501
1706,503
1707,516
1708,525
1709,520
1710,524
1711,532
1712,541
1713,535
1714,523
1715,524
1716,529
1717,539
1718,539
1719,521
1720,507
1721,507
1722,513
1723,529
1724,533
1725,538
1726,532
1727,521
1728,518
1729,517
1730,518
1731,502
1732,500
1733,486
1734,470
1735,466
1736,467
1737,461
1738,441
1739,426
1740,430
1741,448
1742,471
1743,479
1744,473
1745,462
1746,460
1747,465
1748,469
1749,463
1750,461
1751,460
1752,463
1753,454
1754,453
1755,457
1756,471
1757,476
1758,494
1759,515
1760,535
1761,544
1762,527
1763,522
1764,536
1765,547
1766,554
1767,560
1768,546
1769,515
1770,501
1771,490
1772,481
1773,478
1774,476
1775,476
1776,481
1777,499
1778,505
1779,511
1780,524
1781,542
1782,556
1783,551
1784,545
1785,547
1786,551
1787,537
1788,529
1789,524
1790,532
1791,551
1792,567
1793,581
1794,583
1795,575
1796,558
1797,538
1798,512
1799,489
1800,485
1801,500
1802,504
1803,499
1804,483
1805,484
1806,487
1807,489
1808,480
1809,473
1810,480
1811,488
1812,483
1813,474
1814,477
1815,487
1816,494
1817,506
1818,499
1819,500
1820,506
1821,504
1822,504
1823,512
1824,523
1825,519
1826,509
1827,519
1828,518
1829,519
1830,531
1831,533
1832,527
1833,513
1834,504
1835,494
1836,493
1837,494
1838,489
1839,484
1840,491
1841,505
1842,511
1843,507
1844,510
1845,512
1846,506
1847,502
1848,479
1849,461
1850,455
1851,452
1852,457
1853,451
1854,457
1855,477
1856,496
1857,510
1858,518
1859,527
1860,543
1861,553
1862,565
1863,556
1864,534
1865,522
1866,517
1867,504
1868,496
1869,483
1870,470
1871,468
1872,479
1873,481
1874,494
1875,508
1876,518
1877,523
1878,532
1879,529
1880,529
1881,531
1882,532
1883,545
1884,538
1885,540
1886,543
1887,545
1888,538
1889,507
1890,487
1891,495
1892,504
1893,511
1894,498
1895,480
1896,465
1897,464
1898,470
1899,467
1900,476
1901,487
1902,487
1903,489
1904,498
1905,507
1906,526
1907,537
1908,526
1909,516
1910,519
1911,511
1912,510
1913,509
1914,500
1915,498
1916,499
1917,495
1918,493
1919,486
1920,497
1921,515
1922,525
1923,525
1924,525
1925,530
1926,543
1927,561
1928,561
1929,560
1930,565
1931,574
1932,577
1933,569
1934,548
1935,523
1936,513
1937,511
1938,503
1939,495
1940,509
1941,540
1942,551
1943,537
1944,518
1945,508
1946,511
1947,518
1948,527
1949,526
1950,517
1951,511
1952,519
1953,519
1954,510
1955,499
1956,485
1957,468
1958,441
1959,427
1960,439
1961,470
1962,491
1963,499
1964,505
1965,500
1966,487
1967,489
1968,494
1969,500
1970,517
1971,530
1972,544
1973,547
1974,554
1975,563
1976,564
1977,559
1978,536
1979,522
1980,521
1981,530
1982,529
1983,518
1984,505
1985,509
1986,505
1987,510
1988,519
1989,512
1990,494
1991,465
1992,452
1993,431
1994,430
1995,452
1996,482
1997,509
1998,519
1999,526
