timestamp,signal
0,528
1,540
2,551
3,553
4,544
5,561
6,591
7,604
8,587
9,560
10,535
11,523
12,535
13,530
14,509
15,489
16,477
17,487
18,485
19,481
20,487
21,487
22,498
23,507
24,499
25,491
26,481
27,483
28,482
29,449
30,437
31,428
32,443
33,449
34,435
35,447
36,476
37,497
38,491
39,489
40,494
41,499
42,508
43,511
44,510
45,527
46,544
47,545
48,529
49,498
50,484
51,488
52,467
53,461
54,456
55,455
56,465
57,478
58,491
59,492
60,487
61,483
62,486
63,473
64,465
65,466
66,476
67,491
68,489
69,491
70,496
71,492
72,478
73,462
74,441
75,436
76,453
77,480
78,486
79,484
80,499
81,494
82,503
83,513
84,510
85,509
86,522
87,534
88,530
89,506
90,500
91,502
92,510
93,511
94,502
95,508
96,506
97,508
98,523
99,533
100,541
101,552
102,550
103,543
104,538
105,547
106,543
107,539
108,518
109,499
110,511
111,532
112,550
113,549
114,544
115,558
116,568
117,566
118,551
119,536
120,534
121,525
122,505
123,497
124,502
125,512
126,518
127,527
128,514
129,497
130,492
131,504
132,522
133,518
134,502
135,487
136,487
137,503
138,497
139,479
140,473
141,484
142,512
143,524
144,536
145,549
146,559
147,562
148,557
149,542
150,534
151,536
152,536
153,532
154,523
155,508
156,504
157,531
158,543
159,556
160,563
161,564
162,564
163,560
164,555
165,563
166,574
167,579
168,560
169,527
170,502
171,491
172,499
173,503
174,502
175,503
176,500
177,519
178,541
179,530
180,532
181,535
182,538
183,535
184,523
185,526
186,541
187,562
188,556
189,530
190,518
191,513
192,513
193,504
194,485
195,473
196,462
197,452
198,449
199,449
200,457
201,476
202,484
203,481
204,461
205,454
206,470
207,489
208,505
209,512
210,515
211,524
212,524
213,506
214,472
215,448
216,438
217,446
218,463
219,473
220,489
221,511
222,536
223,546
224,568
225,573
226,591
227,608
228,601
229,586
230,573
231,548
232,542
233,541
234,537
235,543
236,548
237,554
238,549
239,536
240,523
241,498
242,483
243,456
244,444
245,457
246,474
247,492
248,496
249,481
250,462
251,451
252,451
253,442
254,440
255,448
256,455
257,460
258,450
259,439
260,420
261,421
262,432
263,432
264,426
265,444
266,465
267,483
268,501
269,516
270,543
271,560
272,553
273,538
274,526
275,517
276,512
277,515
278,504
279,498
280,507
281,499
282,493
283,507
284,517
285,523
286,530
287,545
288,566
289,574
290,576
291,574
292,575
293,565
294,545
295,526
296,501
297,489
298,488
299,493
300,512
301,530
302,528
303,503
304,485
305,473
306,467
307,466
308,444
309,435
310,440
311,463
312,494
313,518
314,528
315,543
316,557
317,560
318,555
319,546
320,541
321,551
322,570
323,580
324,590
325,593
326,571
327,551
328,527
329,504
330,494
331,497
332,491
333,486
334,481
335,496
336,513
337,534
338,556
339,559
340,571
341,579
342,585
343,578
344,555
345,539
346,536
347,532
348,522
349,513
350,514
351,512
352,500
353,488
354,478
355,470
356,467
357,466
358,488
359,497
360,519
361,534
362,527
363,534
364,540
365,549
366,558
367,551
368,546
369,535
370,531
371,519
372,505
373,510
374,532
375,545
376,562
377,575
378,581
379,584
380,592
381,588
382,576
383,561
384,554
385,568
386,564
387,550
388,553
389,558
390,541
391,527
392,511
393,497
394,485
395,472
396,466
397,472
398,478
399,482
400,504
401,525
402,547
403,562
404,563
405,579
406,577
407,563
408,542
409,519
410,499
411,476
412,464
413,466
414,480
415,495
416,498
417,496
418,502
419,491
420,486
421,486
422,473
423,474
424,487
425,508
426,522
427,530
428,534
429,528
430,527
431,520
432,507
433,517
434,500
435,499
436,502
437,511
438,521
439,513
440,510
441,506
442,499
443,487
444,472
445,479
446,488
447,488
448,473
449,460
450,465
451,481
452,497
453,487
454,481
455,486
456,496
457,501
458,486
459,464
460,472
461,475
462,485
463,472
464,453
465,453
466,455
467,458
468,457
469,449
470,454
471,467
472,489
473,496
474,486
475,473
476,450
477,444
478,440
479,440
480,458
481,495
482,530
483,547
484,534
485,528
486,526
487,519
488,504
489,480
490,475
491,480
492,480
493,478
494,473
495,483
496,499
497,509
498,506
499,496
500,497
501,499
502,496
503,483
504,471
505,479
506,492
507,510
508,505
509,497
510,495
511,502
512,519
513,527
514,520
515,525
516,526
517,512
518,484
519,463
520,462
521,465
522,462
523,462
524,451
525,454
526,465
527,473
528,466
529,467
530,476
531,482
532,495
533,503
534,504
535,516
536,525
537,524
538,516
539,507
540,510
541,512
542,521
543,528
544,508
545,490
546,487
547,496
548,493
549,492
550,495
551,493
552,487
553,468
554,448
555,451
556,473
557,486
558,503
559,517
560,541
561,560
562,574
563,569
564,554
565,549
566,537
567,511
568,476
569,452
570,460
571,466
572,460
573,458
574,463
575,475
576,475
577,479
578,484
579,494
580,484
581,474
582,472
583,479
584,484
585,494
586,502
587,504
588,506
589,507
590,500
591,492
592,494
593,493
594,494
595,514
596,530
597,543
598,538
599,527
600,530
601,539
602,542
603,524
604,505
605,499
606,492
607,493
608,485
609,477
610,489
611,507
612,523
613,527
614,519
615,514
616,519
617,538
618,544
619,544
620,551
621,561
622,569
623,547
624,547
625,541
626,524
627,511
628,488
629,455
630,440
631,438
632,450
633,448
634,450
635,460
636,481
637,510
638,525
639,518
640,515
641,498
642,492
643,478
644,471
645,477
646,479
647,489
648,487
649,469
650,467
651,467
652,476
653,473
654,458
655,456
656,452
657,470
658,487
659,492
660,489
661,482
662,484
663,477
664,468
665,472
666,491
667,503
668,519
669,544
670,566
671,580
672,591
673,585
674,583
675,577
676,577
677,569
678,547
679,525
680,535
681,559
682,574
683,570
684,559
685,551
686,536
687,523
688,512
689,497
690,493
691,503
692,497
693,493
694,487
695,481
696,479
697,488
698,495
699,487
700,489
701,504
702,527
703,530
704,515
705,509
706,515
707,524
708,527
709,515
710,512
711,513
712,511
713,505
714,489
715,489
716,521
717,509
718,499
719,482
720,493
721,515
722,543
723,560
724,563
725,568
726,562
727,553
728,532
729,513
730,526
731,524
732,507
733,496
734,487
735,481
736,471
737,463
738,461
739,451
740,454
741,469
742,497
743,532
744,567
745,574
746,593
747,599
748,600
749,596
750,594
751,593
752,573
753,559
754,562
755,571
756,565
757,547
758,531
759,520
760,535
761,540
762,540
763,537
764,525
765,532
766,544
767,562
768,571
769,564
770,563
771,563
772,561
773,561
774,555
775,562
776,578
777,589
778,592
779,558
780,525
781,494
782,474
783,455
784,439
785,442
786,447
787,455
788,455
789,462
790,472
791,478
792,492
793,509
794,505
795,504
796,512
797,511
798,512
799,516
800,529
801,541
802,540
803,539
804,532
805,531
806,546
807,564
808,574
809,558
810,545
811,553
812,574
813,566
814,542
815,532
816,537
817,548
818,550
819,543
820,539
821,528
822,519
823,494
824,469
825,461
826,460
827,460
828,464
829,468
830,472
831,482
832,499
833,490
834,481
835,484
836,479
837,477
838,471
839,480
840,489
841,487
842,504
843,487
844,470
845,465
846,457
847,453
848,449
849,449
850,470
851,500
852,530
853,542
854,547
855,559
856,568
857,590
858,577
859,566
860,561
861,558
862,561
863,536
864,523
865,519
866,507
867,497
868,473
869,459
870,459
871,479
872,511
873,514
874,509
875,511
876,520
877,529
878,525
879,525
880,533
881,543
882,540
883,519
884,493
885,489
886,499
887,502
888,499
889,503
890,518
891,527
892,530
893,529
894,520
895,519
896,525
897,523
898,522
899,528
900,537
901,536
902,548
903,556
904,547
905,542
906,541
907,540
908,540
909,544
910,560
911,561
912,557
913,547
914,520
915,523
916,529
917,543
918,549
919,548
920,547
921,548
922,547
923,541
924,542
925,546
926,540
927,524
928,497
929,472
930,473
931,494
932,519
933,532
934,533
935,523
936,509
937,500
938,489
939,489
940,499
941,512
942,536
943,543
944,551
945,567
946,579
947,571
948,556
949,536
950,515
951,513
952,518
953,531
954,543
955,550
956,544
957,524
958,500
959,481
960,476
961,471
962,469
963,468
964,451
965,446
966,457
967,444
968,432
969,414
970,413
971,426
972,436
973,442
974,444
975,451
976,472
977,468
978,454
979,429
980,419
981,419
982,423
983,431
984,443
985,468
986,500
987,529
988,535
989,524
990,513
991,499
992,484
993,468
994,456
995,465
996,484
997,490
998,481
999,469
1000,461
1001,455
1002,473
1003,488
1004,494
1005,497
1006,516
1007,508
1008,496
1009,478
1010,471
1011,463
1012,465
1013,461
1014,466
1015,483
1016,500
1017,519
1018,521
1019,505
1020,506
1021,516
1022,526
1023,532
1024,543
1025,556
1026,559
1027,561
1028,569
1029,569
1030,563
1031,555
1032,552
1033,558
1034,547
1035,556
1036,565
1037,572
1038,563
1039,540
1040,527
1041,518
1042,525
1043,551
1044,557
1045,562
1046,562
1047,558
1048,550
1049,535
1050,528
1051,530
1052,535
1053,526
1054,505
1055,505
1056,510
1057,522
1058,526
1059,519
1060,521
1061,521
1062,531
1063,529
1064,519
1065,516
1066,515
1067,511
1068,511
1069,518
1070,534
1071,557
1072,567
1073,556
1074,523
1075,491
1076,480
1077,482
1078,472
1079,449
1080,435
1081,429
1082,428
1083,429
1084,431
1085,439
1086,447
1087,455
1088,472
1089,488
1090,496
1091,489
1092,480
1093,478
1094,475
1095,483
1096,492
1097,496
1098,496
1099,495
1100,512
1101,526
1102,519
1103,508
1104,491
1105,487
1106,489
1107,504
1108,515
1109,521
1110,529
1111,526
1112,525
1113,526
1114,521
1115,513
1116,504
1117,495
1118,494
1119,496
1120,497
1121,510
1122,517
1123,511
1124,494
1125,491
1126,499
1127,506
1128,514
1129,513
1130,513
1131,520
1132,533
1133,536
1134,529
1135,524
1136,514
1137,497
1138,477
1139,462
1140,465
1141,486
1142,487
1143,503
1144,514
1145,522
1146,521
1147,507
1148,485
1149,462
1150,454
1151,465
1152,482
1153,491
1154,488
1155,489
1156,497
1157,507
1158,514
1159,517
1160,536
1161,543
1162,536
1163,543
1164,546
1165,548
1166,548
1167,519
1168,504
1169,505
1170,519
1171,534
1172,528
1173,502
1174,483
1175,487
1176,493
1177,506
1178,518
1179,508
1180,514
1181,524
1182,527
1183,531
1184,509
1185,497
1186,503
1187,505
1188,490
1189,483
1190,490
1191,513
1192,521
1193,507
1194,489
1195,490
1196,499
1197,502
1198,497
1199,488
1200,491
1201,500
1202,505
1203,499
1204,489
1205,495
1206,504
1207,509
1208,498
1209,487
1210,486
1211,483
1212,490
1213,507
1214,514
1215,526
1216,534
1217,534
1218,537
1219,537
1220,552
1221,562
1222,554
1223,544
1224,544
1225,568
1226,575
1227,575
1228,574
1229,567
1230,565
1231,562
1232,564
1233,577
1234,585
1235,586
1236,572
1237,552
1238,551
1239,559
1240,575
1241,582
1242,579
1243,576
1244,563
1245,550
1246,537
1247,497
1248,472
1249,459
1250,459
1251,469
1252,472
1253,472
1254,470
1255,480
1256,497
1257,508
1258,501
1259,487
1260,493
1261,511
1262,521
1263,520
1264,523
1265,529
1266,534
1267,534
1268,526
1269,507
1270,499
1271,492
1272,479
1273,465
1274,456
1275,472
1276,485
1277,488
1278,496
1279,509
1280,529
1281,541
1282,536
1283,536
1284,537
1285,548
1286,555
1287,555
1288,548
1289,537
1290,539
1291,537
1292,519
1293,502
1294,478
1295,476
1296,485
1297,499
1298,508
1299,516
1300,520
1301,516
1302,493
1303,472
1304,459
1305,460
1306,461
1307,455
1308,454
1309,452
1310,466
1311,487
1312,494
1313,486
1314,468
1315,471
1316,489
1317,508
1318,509
1319,490
1320,480
1321,477
1322,476
1323,489
1324,492
1325,498
1326,497
1327,496
1328,486
1329,472
1330,465
1331,464
1332,463
1333,450
1334,436
1335,432
1336,441
1337,461
1338,463
1339,447
1340,420
1341,383
1342,372
1343,366
1344,370
1345,379
1346,395
1347,418
1348,422
1349,422
1350,427
1351,444
1352,464
1353,486
1354,497
1355,518
1356,537
1357,549
1358,538
1359,515
1360,519
1361,521
1362,528
1363,541
1364,525
1365,525
1366,542
1367,546
1368,535
1369,515
1370,520
1371,540
1372,550
1373,552
1374,542
1375,547
1376,558
1377,559
1378,546
1379,524
1380,527
1381,535
1382,537
1383,536
1384,539
1385,547
1386,558
1387,560
1388,561
1389,559
1390,563
1391,558
1392,543
1393,533
1394,531
1395,542
1396,549
1397,555
1398,563
1399,561
1400,568
1401,571
1402,557
1403,552
1404,556
1405,559
1406,558
1407,543
1408,546
1409,543
1410,555
1411,571
1412,580
1413,581
1414,560
1415,540
1416,521
1417,518
1418,522
1419,509
1420,499
1421,494
1422,492
1423,482
1424,470
1425,478
1426,487
1427,490
1428,476
1429,460
1430,465
1431,467
1432,475
1433,483
1434,492
1435,508
1436,516
1437,516
1438,503
1439,497
1440,511
1441,523
1442,524
1443,517
1444,497
1445,485
1446,483
1447,498
1448,529
1449,543
1450,558
1451,557
1452,547
1453,551
1454,549
1455,565
1456,577
1457,568
1458,547
1459,530
1460,521
1461,523
1462,516
1463,513
1464,516
1465,517
1466,503
1467,487
1468,481
1469,457
1470,473
1471,494
1472,510
1473,504
1474,479
1475,465
1476,459
1477,455
1478,462
1479,469
1480,483
1481,504
1482,513
1483,513
1484,511
1485,522
1486,519
1487,494
1488,480
1489,473
1490,487
1491,497
1492,500
1493,495
1494,484
1495,485
1496,505
1497,528
1498,545
1499,550
1500,547
1501,560
1502,581
1503,580
1504,556
1505,549
1506,553
1507,560
1508,558
1509,530
1510,510
1511,506
1512,526
1513,531
1514,519
1515,525
1516,541
1517,546
1518,541
1519,524
1520,514
1521,512
1522,502
1523,506
1524,515
1525,530
1526,544
1527,551
1528,570
1529,587
1530,595
1531,590
1532,577
1533,572
1534,543
1535,536
1536,534
1537,526
1538,513
1539,497
1540,496
1541,505
1542,513
1543,506
1544,492
1545,487
1546,471
1547,457
1548,447
1549,436
1550,443
1551,451
1552,461
1553,471
1554,466
1555,464
1556,466
1557,477
1558,468
1559,471
1560,492
1561,513
1562,526
1563,516
1564,503
1565,496
1566,493
1567,500
1568,505
1569,500
1570,507
1571,524
1572,531
1573,535
1574,523
1575,516
1576,510
1577,512
1578,508
1579,489
1580,479
1581,484
1582,497
1583,505
1584,516
1585,540
1586,565
1587,577
1588,583
1589,580
1590,592
1591,607
1592,603
1593,568
1594,526
1595,500
1596,486
1597,481
1598,477
1599,461
1600,463
1601,469
1602,484
1603,487
1604,487
1605,494
1606,495
1607,491
1608,480
1609,469
1610,469
1611,472
1612,484
1613,476
1614,466
1615,449
1616,436
1617,429
1618,410
1619,379
1620,375
1621,397
1622,432
1623,452
1624,465
1625,472
1626,480
1627,491
1628,503
1629,506
1630,504
1631,492
1632,479
1633,456
1634,436
1635,438
1636,459
1637,477
1638,485
1639,480
1640,474
1641,464
1642,465
1643,471
1644,479
1645,473
1646,473
1647,475
1648,486
1649,495
1650,521
1651,539
1652,551
1653,551
1654,531
1655,522
1656,524
1657,516
1658,497
1659,488
1660,473
1661,471
1662,473
1663,479
1664,473
1665,487
1666,499
1667,499
1668,486
1669,470
1670,477
1671,487
1672,499
1673,520
1674,539
1675,543
1676,545
1677,539
1678,545
1679,545
1680,544
1681,542
1682,539
1683,537
1684,528
1685,520
1686,510
1687,495
1688,484
1689,466
1690,468
1691,482
1692,487
1693,474
1694,459
1695,463
1696,475
1697,500
1698,520
1699,526
1700,538
1701,544
1702,548
1703,554
1704,546
1705,539
1706,528
1707,517
1708,508
1709,488
1710,484
1711,492
1712,515
1713,536
1714,537
1715,533
1716,522
1717,510
1718,494
1719,472
1720,455
1721,448
1722,463
1723,477
1724,474
1725,483
1726,493
1727,496
1728,494
1729,493
1730,510
1731,542
1732,566
1733,575
1734,574
1735,579
1736,596
1737,612
1738,615
1739,599
1740,592
1741,587
1742,578
1743,563
1744,540
1745,532
1746,543
1747,547
1748,545
1749,532
1750,533
1751,548
1752,538
1753,536
1754,529
1755,527
1756,519
1757,507
1758,501
1759,492
1760,486
1761,485
1762,492
1763,494
1764,485
1765,485
1766,490
1767,481
1768,470
1769,458
1770,457
1771,465
1772,486
1773,483
1774,465
1775,465
1776,473
1777,474
1778,466
1779,449
1780,459
1781,472
1782,470
1783,448
1784,428
1785,430
1786,449
1787,471
1788,484
1789,482
1790,487
1791,508
1792,535
1793,539
1794,543
1795,544
1796,539
1797,543
1798,543
1799,530
1800,538
1801,551
1802,558
1803,555
1804,533
1805,519
1806,518
1807,523
1808,526
1809,530
1810,535
1811,529
1812,509
1813,505
1814,516
1815,543
1816,553
1817,540
1818,529
1819,528
1820,536
1821,550
1822,567
1823,578
1824,583
1825,559
1826,554
1827,547
1828,550
1829,525
1830,502
1831,495
1832,495
1833,498
1834,487
1835,478
1836,483
1837,494
1838,503
1839,508
1840,525
1841,532
1842,519
1843,499
1844,483
1845,489
1846,495
1847,494
1848,481
1849,463
1850,462
1851,460
1852,463
1853,472
1854,483
1855,502
1856,525
1857,512
1858,511
1859,521
1860,540
1861,555
1862,556
1863,558
1864,548
1865,548
1866,547
1867,539
1868,527
1869,503
1870,487
1871,484
1872,491
1873,501
1874,480
1875,491
1876,505
1877,512
1878,517
1879,514
1880,517
1881,528
1882,545
1883,549
1884,541
1885,524
1886,507
1887,501
1888,494
1889,487
1890,493
1891,511
1892,519
1893,511
1894,497
1895,494
1896,504
1897,525
1898,522
1899,518
1900,520
1901,532
1902,551
1903,556
1904,542
1905,522
1906,510
1907,495
1908,490
1909,477
1910,480
1911,492
1912,504
1913,507
1914,498
1915,489
1916,475
1917,486
1918,476
1919,467
1920,466
1921,473
1922,479
1923,485
1924,489
1925,499
1926,511
1927,523
1928,540
1929,525
1930,536
1931,541
1932,550
1933,547
1934,529
1935,516
1936,526
1937,535
1938,535
1939,522
1940,510
1941,503
1942,502
1943,512
1944,494
1945,486
1946,488
1947,494
1948,490
1949,466
1950,471
1951,468
1952,456
1953,439
1954,432
1955,445
1956,471
1957,473
1958,477
1959,488
1960,509
1961,509
1962,510
1963,519
1964,507
1965,511
1966,532
1967,546
1968,562
1969,572
1970,571
1971,559
1972,543
1973,531
1974,510
1975,494
1976,487
1977,495
1978,505
1979,502
1980,508
1981,518
1982,529
1983,530
1984,511
1985,496
1986,496
1987,515
1988,526
1989,526
1990,523
1991,520
1992,531
1993,529
1994,518
1995,520
1996,531
1997,540
1998,536
1999,529
