timestamp,signal
0,459
1,454
2,454
3,472
4,504
5,526
6,526
7,520
8,518
9,516
10,514
11,494
12,489
13,489
14,487
15,499
16,503
17,500
18,507
19,515
20,527
21,524
22,521
23,523
24,529
25,548
26,555
27,566
28,561
29,552
30,551
31,565
32,575
33,564
34,548
35,539
36,544
37,560
38,566
39,565
40,566
41,572
42,595
43,601
44,609
45,602
46,604
47,592
48,571
49,551
50,536
51,519
52,508
53,499
54,488
55,484
56,471
57,459
58,458
59,474
60,493
61,497
62,496
63,504
64,513
65,543
66,559
67,567
68,574
69,580
70,584
71,573
72,556
73,548
74,543
75,536
76,543
77,547
78,550
79,556
80,551
81,539
82,527
83,524
84,524
85,529
86,534
87,539
88,543
89,540
90,541
91,547
92,537
93,528
94,520
95,513
96,517
97,517
98,517
99,520
100,518
101,523
102,508
103,496
104,491
105,488
106,486
107,492
108,508
109,520
110,529
111,529
112,532
113,535
114,536
115,544
116,526
117,494
118,481
119,470
120,462
121,452
122,449
123,447
124,444
125,439
126,443
127,444
128,447
129,460
130,475
131,478
132,462
133,442
134,449
135,465
136,476
137,483
138,497
139,518
140,535
141,520
142,486
143,460
144,456
145,474
146,497
147,529
148,558
149,582
150,585
151,576
152,573
153,554
154,531
155,522
156,504
157,481
158,470
159,469
160,465
161,483
162,502
163,508
164,513
165,502
166,490
167,471
168,463
169,457
170,458
171,480
172,516
173,540
174,522
175,490
176,472
177,468
178,477
179,488
180,499
181,496
182,483
183,478
184,480
185,476
186,455
187,441
188,442
189,459
190,470
191,468
192,469
193,478
194,500
195,503
196,496
197,480
198,452
199,442
200,452
201,469
202,475
203,485
204,501
205,514
206,512
207,494
208,483
209,478
210,484
211,483
212,473
213,460
214,450
215,469
216,469
217,478
218,481
219,490
220,506
221,504
222,505
223,501
224,494
225,498
226,497
227,492
228,499
229,511
230,519
231,508
232,493
233,477
234,467
235,460
236,446
237,440
238,451
239,468
240,478
241,472
242,465
243,465
244,471
245,477
246,477
247,484
248,488
249,499
250,521
251,543
252,541
253,548
254,556
255,548
256,537
257,527
258,527
259,526
260,513
261,510
262,515
263,516
264,520
265,527
266,528
267,536
268,560
269,560
270,550
271,542
272,545
273,541
274,537
275,534
276,531
277,529
278,528
279,522
280,513
281,492
282,459
283,444
284,442
285,440
286,443
287,452
288,469
289,487
290,508
291,519
292,534
293,538
294,538
295,526
296,506
297,485
298,484
299,496
300,507
301,505
302,509
303,523
304,537
305,544
306,538
307,523
308,521
309,526
310,518
311,515
312,520
313,518
314,520
315,511
316,509
317,513
318,511
319,503
320,491
321,477
322,476
323,484
324,493
325,508
326,504
327,502
328,500
329,495
330,483
331,455
332,432
333,435
334,448
335,461
336,467
337,478
338,499
339,516
340,524
341,519
342,504
343,506
344,511
345,521
346,529
347,523
348,509
349,496
350,482
351,472
352,460
353,456
354,466
355,475
356,475
357,469
358,479
359,498
360,505
361,496
362,490
363,466
364,444
365,439
366,432
367,436
368,455
369,467
370,478
371,513
372,529
373,551
374,573
375,577
376,583
377,593
378,602
379,604
380,592
381,558
382,524
383,504
384,505
385,518
386,518
387,507
388,497
389,489
390,483
391,473
392,476
393,478
394,476
395,488
396,508
397,522
398,532
399,543
400,546
401,519
402,489
403,468
404,466
405,467
406,471
407,463
408,455
409,457
410,461
411,484
412,499
413,507
414,504
415,484
416,487
417,476
418,462
419,462
420,476
421,494
422,511
423,515
424,515
425,527
426,546
427,561
428,577
429,590
430,591
431,581
432,570
433,561
434,546
435,542
436,547
437,536
438,523
439,501
440,472
441,433
442,413
443,415
444,423
445,435
446,453
447,479
448,504
449,501
450,510
451,519
452,521
453,520
454,517
455,521
456,515
457,508
458,492
459,479
460,465
461,454
462,445
463,449
464,463
465,480
466,472
467,466
468,482
469,512
470,529
471,529
472,531
473,525
474,521
475,527
476,532
477,513
478,494
479,487
480,481
481,486
482,486
483,492
484,501
485,520
486,542
487,571
488,570
489,567
490,556
491,535
492,514
493,511
494,513
495,519
496,540
497,548
498,541
499,535
500,531
501,522
502,518
503,525
504,535
505,543
506,550
507,553
508,556
509,567
510,567
511,552
512,544
513,545
514,538
515,523
516,523
517,531
518,536
519,546
520,564
521,587
522,589
523,582
524,570
525,563
526,563
527,570
528,573
529,576
530,576
531,555
532,532
533,514
534,503
535,499
536,496
537,501
538,502
539,511
540,525
541,512
542,506
543,506
544,510
545,514
546,511
547,515
548,523
549,531
550,522
551,512
552,501
553,492
554,471
555,446
556,423
557,400
558,383
559,377
560,382
561,392
562,408
563,431
564,447
565,466
566,466
567,475
568,484
569,502
570,514
571,508
572,510
573,533
574,546
575,556
576,547
577,542
578,534
579,537
580,536
581,495
582,472
583,466
584,473
585,475
586,453
587,440
588,438
589,447
590,455
591,454
592,463
593,478
594,487
595,500
596,508
597,515
598,519
599,527
600,541
601,542
602,517
603,497
604,489
605,481
606,475
607,455
608,443
609,440
610,450
611,463
612,473
613,492
614,514
615,523
616,525
617,524
618,533
619,550
620,573
621,585
622,579
623,579
624,577
625,569
626,555
627,541
628,517
629,499
630,492
631,488
632,497
633,517
634,528
635,524
636,511
637,496
638,467
639,458
640,464
641,472
642,484
643,499
644,512
645,523
646,507
647,503
648,504
649,496
650,499
651,502
652,508
653,514
654,506
655,499
656,497
657,494
658,488
659,466
660,432
661,425
662,438
663,449
664,449
665,452
666,478
667,492
668,495
669,517
670,547
671,558
672,563
673,557
674,546
675,549
676,541
677,525
678,526
679,527
680,529
681,526
682,514
683,511
684,509
685,514
686,519
687,531
688,535
689,528
690,513
691,503
692,507
693,511
694,504
695,490
696,472
697,472
698,496
699,517
700,534
701,538
702,547
703,556
704,558
705,547
706,536
707,521
708,498
709,494
710,499
711,504
712,515
713,514
714,507
715,510
716,513
717,512
718,516
719,530
720,549
721,552
722,547
723,556
724,551
725,567
726,570
727,568
728,583
729,591
730,594
731,592
732,590
733,591
734,585
735,572
736,557
737,545
738,538
739,523
740,504
741,496
742,508
743,515
744,502
745,494
746,484
747,490
748,494
749,510
750,523
751,513
752,509
753,502
754,511
755,523
756,504
757,480
758,475
759,476
760,475
761,475
762,494
763,490
764,494
765,500
766,506
767,502
768,511
769,527
770,536
771,527
772,506
773,480
774,467
775,467
776,477
777,488
778,488
779,495
780,510
781,503
782,504
783,501
784,503
785,519
786,536
787,541
788,542
789,549
790,521
791,496
792,478
793,486
794,504
795,510
796,510
797,515
798,516
799,521
800,529
801,534
802,532
803,528
804,522
805,511
806,489
807,473
808,461
809,448
810,450
811,450
812,455
813,474
814,475
815,470
816,451
817,444
818,446
819,457
820,479
821,485
822,495
823,497
824,491
825,492
826,476
827,470
828,473
829,477
830,481
831,484
832,484
833,496
834,525
835,551
836,558
837,550
838,535
839,510
840,491
841,488
842,492
843,492
844,490
845,493
846,494
847,496
848,488
849,480
850,485
851,507
852,520
853,536
854,538
855,531
856,514
857,504
858,503
859,506
860,506
861,513
862,522
863,517
864,502
865,483
866,494
867,507
868,524
869,542
870,556
871,577
872,600
873,617
874,614
875,621
876,624
877,624
878,612
879,585
880,542
881,519
882,502
883,490
884,495
885,496
886,502
887,511
888,519
889,519
890,507
891,480
892,463
893,466
894,479
895,504
896,533
897,543
898,544
899,545
900,549
901,541
902,525
903,510
904,503
905,499
906,492
907,492
908,500
909,509
910,502
911,494
912,488
913,486
914,491
915,505
916,515
917,511
918,511
919,520
920,544
921,566
922,581
923,589
924,585
925,565
926,534
927,528
928,532
929,534
930,531
931,519
932,511
933,524
934,545
935,559
936,565
937,577
938,575
939,569
940,562
941,553
942,542
943,534
944,525
945,515
946,520
947,528
948,534
949,551
950,561
951,568
952,563
953,558
954,547
955,538
956,522
957,518
958,519
959,533
960,531
961,519
962,508
963,508
964,505
965,513
966,527
967,532
968,524
969,531
970,535
971,526
972,513
973,504
974,491
975,475
976,465
977,467
978,470
979,476
980,464
981,465
982,461
983,478
984,497
985,504
986,503
987,497
988,492
989,487
990,489
991,490
992,485
993,476
994,476
995,484
996,495
997,503
998,500
999,495
1000,488
1001,479
1002,477
1003,487
1004,497
1005,508
1006,520
1007,529
1008,516
1009,526
1010,518
1011,513
1012,518
1013,519
1014,523
1015,534
1016,557
1017,572
1018,572
1019,581
1020,596
1021,585
1022,555
1023,524
1024,491
1025,475
1026,479
1027,492
1028,506
1029,527
1030,553
1031,539
1032,534
1033,528
1034,527
1035,523
1036,504
1037,488
1038,483
1039,478
1040,462
1041,435
1042,428
1043,422
1044,430
1045,453
1046,476
1047,491
1048,514
1049,538
1050,551
1051,562
1052,563
1053,537
1054,523
1055,500
1056,486
1057,472
1058,474
1059,477
1060,487
1061,487
1062,484
1063,471
1064,470
1065,483
1066,491
1067,487
1068,486
1069,492
1070,505
1071,515
1072,519
1073,522
1074,540
1075,563
1076,557
1077,551
1078,536
1079,518
1080,503
1081,488
1082,480
1083,475
1084,479
1085,487
1086,500
1087,504
1088,506
1089,500
1090,490
1091,476
1092,463
1093,456
1094,458
1095,468
1096,488
1097,501
1098,519
1099,539
1100,562
1101,576
1102,566
1103,546
1104,539
1105,536
1106,536
1107,533
1108,533
1109,530
1110,521
1111,508
1112,499
1113,494
1114,494
1115,492
1116,471
1117,462
1118,449
1119,443
1120,452
1121,460
1122,462
1123,465
1124,471
1125,469
1126,471
1127,482
1128,496
1129,515
1130,532
1131,536
1132,530
1133,512
1134,492
1135,483
1136,491
1137,503
1138,512
1139,515
1140,513
1141,500
1142,489
1143,476
1144,478
1145,473
1146,459
1147,449
1148,457
1149,486
1150,510
1151,519
1152,515
1153,513
1154,516
1155,530
1156,534
1157,528
1158,523
1159,523
1160,519
1161,508
1162,507
1163,502
1164,492
1165,474
1166,452
1167,438
1168,434
1169,442
1170,452
1171,460
1172,472
1173,484
1174,492
1175,499
1176,498
1177,506
1178,511
1179,512
1180,514
1181,523
1182,551
1183,564
1184,576
1185,588
1186,587
1187,591
1188,603
1189,622
1190,624
1191,610
1192,583
1193,556
1194,543
1195,526
1196,515
1197,502
1198,486
1199,484
1200,476
1201,464
1202,446
1203,444
1204,460
1205,479
1206,490
1207,495
1208,494
1209,499
1210,509
1211,518
1212,526
1213,536
1214,537
1215,542
1216,563
1217,579
1218,579
1219,572
1220,559
1221,560
1222,560
1223,554
1224,546
1225,547
1226,556
1227,553
1228,544
1229,546
1230,556
1231,562
1232,562
1233,560
1234,539
1235,516
1236,506
1237,498
1238,493
1239,496
1240,502
1241,518
1242,524
1243,514
1244,500
1245,484
1246,486
1247,488
1248,490
1249,490
1250,491
1251,490
1252,470
1253,451
1254,435
1255,412
1256,397
1257,393
1258,391
1259,400
1260,425
1261,442
1262,446
1263,450
1264,463
1265,481
1266,504
1267,485
1268,470
1269,468
1270,472
1271,498
1272,528
1273,549
1274,548
1275,528
1276,524
1277,509
1278,493
1279,483
1280,476
1281,485
1282,487
1283,492
1284,484
1285,484
1286,496
1287,494
1288,501
1289,501
1290,497
1291,507
1292,508
1293,493
1294,488
1295,496
1296,501
1297,502
1298,512
1299,532
1300,550
1301,538
1302,528
1303,526
1304,527
1305,521
1306,498
1307,464
1308,449
1309,457
1310,453
1311,439
1312,432
1313,438
1314,458
1315,484
1316,499
1317,517
1318,526
1319,522
1320,511
1321,494
1322,484
1323,479
1324,463
1325,460
1326,455
1327,463
1328,476
1329,492
1330,473
1331,476
1332,489
1333,498
1334,501
1335,506
1336,517
1337,527
1338,539
1339,543
1340,537
1341,532
1342,517
1343,504
1344,504
1345,514
1346,526
1347,529
1348,533
1349,547
1350,543
1351,544
1352,530
1353,524
1354,509
1355,504
1356,500
1357,500
1358,497
1359,496
1360,496
1361,503
1362,496
1363,493
1364,495
1365,507
1366,505
1367,504
1368,510
1369,513
1370,521
1371,539
1372,552
1373,548
1374,538
1375,521
1376,496
1377,472
1378,457
1379,451
1380,458
1381,473
1382,490
1383,498
1384,492
1385,495
1386,486
1387,494
1388,467
1389,455
1390,460
1391,475
1392,506
1393,537
1394,556
1395,574
1396,568
1397,559
1398,547
1399,529
1400,514
1401,504
1402,493
1403,480
1404,481
1405,496
1406,501
1407,506
1408,509
1409,512
1410,513
1411,507
1412,499
1413,507
1414,514
1415,513
1416,508
1417,515
1418,528
1419,546
1420,552
1421,536
1422,515
1423,501
1424,498
1425,504
1426,508
1427,514
1428,512
1429,528
1430,507
1431,496
1432,481
1433,473
1434,480
1435,504
1436,529
1437,538
1438,536
1439,535
1440,521
1441,520
1442,513
1443,512
1444,511
1445,509
1446,495
1447,486
1448,496
1449,523
1450,545
1451,556
1452,553
1453,543
1454,527
1455,528
1456,534
1457,537
1458,543
1459,531
1460,505
1461,486
1462,467
1463,456
1464,447
1465,454
1466,445
1467,435
1468,447
1469,464
1470,480
1471,505
1472,523
1473,542
1474,557
1475,576
1476,579
1477,574
1478,568
1479,562
1480,550
1481,518
1482,497
1483,491
1484,492
1485,502
1486,495
1487,491
1488,480
1489,467
1490,466
1491,466
1492,480
1493,502
1494,520
1495,536
1496,536
1497,534
1498,538
1499,555
1500,578
1501,569
1502,558
1503,555
1504,548
1505,545
1506,539
1507,541
1508,518
1509,498
1510,484
1511,488
1512,499
1513,515
1514,535
1515,544
1516,550
1517,552
1518,543
1519,535
1520,512
1521,494
1522,471
1523,456
1524,459
1525,483
1526,516
1527,536
1528,546
1529,551
1530,563
1531,561
1532,551
1533,535
1534,518
1535,517
1536,505
1537,493
1538,486
1539,490
1540,504
1541,524
1542,533
1543,525
1544,519
1545,515
1546,515
1547,509
1548,497
1549,480
1550,470
1551,460
1552,453
1553,456
1554,463
1555,473
1556,478
1557,478
1558,482
1559,476
1560,494
1561,499
1562,511
1563,516
1564,514
1565,505
1566,488
1567,468
1568,456
1569,450
1570,451
1571,451
1572,450
1573,454
1574,459
1575,463
1576,468
1577,464
1578,454
1579,460
1580,480
1581,500
1582,509
1583,520
1584,537
1585,562
1586,563
1587,561
1588,564
1589,563
1590,565
1591,558
1592,558
1593,551
1594,542
1595,524
1596,507
1597,499
1598,499
1599,500
1600,512
1601,514
1602,503
1603,499
1604,513
1605,526
1606,530
1607,528
1608,523
1609,530
1610,531
1611,525
1612,516
1613,524
1614,523
1615,523
1616,518
1617,524
1618,531
1619,543
1620,560
1621,553
1622,551
1623,556
1624,567
1625,582
1626,591
1627,586
1628,587
1629,583
1630,574
1631,557
1632,544
1633,531
1634,522
1635,511
1636,500
1637,495
1638,489
1639,484
1640,474
1641,480
1642,480
1643,475
1644,474
1645,467
1646,477
1647,487
1648,500
1649,513
1650,510
1651,518
1652,531
1653,538
1654,550
1655,559
1656,569
1657,562
1658,552
1659,535
1660,524
1661,532
1662,539
1663,535
1664,530
1665,524
1666,508
1667,491
1668,474
1669,480
1670,484
1671,491
1672,493
1673,497
1674,504
1675,505
1676,488
1677,460
1678,445
1679,448
1680,465
1681,491
1682,503
1683,503
1684,510
1685,516
1686,535
1687,557
1688,564
1689,559
1690,557
1691,568
1692,567
1693,563
1694,553
1695,547
1696,531
1697,500
1698,477
1699,455
1700,443
1701,422
1702,397
1703,385
1704,384
1705,391
1706,390
1707,404
1708,431
1709,460
1710,480
1711,478
1712,474
1713,482
1714,482
1715,487
1716,493
1717,494
1718,504
1719,510
1720,495
1721,451
1722,416
1723,409
1724,417
1725,440
1726,439
1727,446
1728,465
1729,495
1730,511
1731,522
1732,536
1733,548
1734,555
1735,560
1736,558
1737,559
1738,571
1739,559
1740,548
1741,524
1742,494
1743,482
1744,484
1745,487
1746,489
1747,489
1748,486
1749,487
1750,483
1751,468
1752,453
1753,440
1754,441
1755,448
1756,436
1757,429
1758,428
1759,428
1760,431
1761,438
1762,441
1763,450
1764,464
1765,488
1766,500
1767,509
1768,520
1769,540
1770,555
1771,554
1772,544
1773,531
1774,524
1775,527
1776,515
1777,502
1778,483
1779,475
1780,487
1781,505
1782,511
1783,508
1784,509
1785,531
1786,550
1787,554
1788,547
1789,543
1790,534
1791,532
1792,517
1793,515
1794,524
1795,535
1796,515
1797,512
1798,513
1799,505
1800,519
1801,512
1802,527
1803,547
1804,561
1805,575
1806,564
1807,544
1808,539
1809,552
1810,571
1811,579
1812,564
1813,564
1814,569
1815,577
1816,571
1817,560
1818,550
1819,554
1820,554
1821,565
1822,583
1823,594
1824,592
1825,580
1826,561
1827,548
1828,544
1829,541
1830,537
1831,546
1832,549
1833,567
1834,583
1835,587
1836,577
1837,569
1838,571
1839,566
1840,562
1841,539
1842,516
1843,514
1844,532
1845,541
1846,531
1847,514
1848,513
1849,521
1850,527
1851,515
1852,508
1853,504
1854,504
1855,504
1856,497
1857,491
1858,498
1859,517
1860,526
1861,519
1862,523
1863,519
1864,518
1865,523
1866,525
1867,518
1868,504
1869,499
1870,504
1871,499
1872,490
1873,485
1874,491
1875,501
1876,491
1877,478
1878,467
1879,462
1880,467
1881,457
1882,452
1883,462
1884,477
1885,488
1886,495
1887,499
1888,500
1889,507
1890,513
1891,518
1892,512
1893,517
1894,513
1895,494
1896,487
1897,504
1898,517
1899,520
1900,511
1901,495
1902,493
1903,499
1904,514
1905,531
1906,523
1907,502
1908,497
1909,505
1910,515
1911,519
1912,532
1913,544
1914,548
1915,553
1916,560
1917,563
1918,570
1919,587
1920,589
1921,551
1922,513
1923,496
1924,494
1925,501
1926,526
1927,535
1928,546
1929,547
1930,534
1931,527
1932,531
1933,533
1934,535
1935,541
1936,545
1937,550
1938,557
1939,553
1940,549
1941,547
1942,550
1943,532
1944,517
1945,518
1946,521
1947,498
1948,501
1949,501
1950,489
1951,470
1952,454
1953,460
1954,475
1955,483
1956,489
1957,477
1958,487
1959,502
1960,512
1961,508
1962,494
1963,490
1964,496
1965,499
1966,483
1967,476
1968,485
1969,495
1970,502
1971,499
1972,499
1973,500
1974,509
1975,500
1976,490
1977,486
1978,491
1979,497
1980,513
1981,523
1982,525
1983,527
1984,527
1985,524
1986,512
1987,505
1988,514
1989,530
1990,543
1991,553
1992,557
1993,551
1994,544
1995,523
1996,513
1997,498
1998,486
1999,482
