timestamp,signal
0,524
1,507
2,505
3,506
4,516
5,523
6,518
7,524
8,523
9,523
10,526
11,519
12,512
13,508
14,508
15,503
16,496
17,499
18,497
19,505
20,512
21,516
22,510
23,504
24,511
25,521
26,531
27,525
28,505
29,504
30,492
31,486
32,490
33,480
34,481
35,482
36,498
37,483
38,484
39,501
40,515
41,516
42,527
43,533
44,550
45,567
46,586
47,587
48,568
49,553
50,552
51,558
52,563
53,554
54,559
55,568
56,574
57,571
58,557
59,540
60,526
61,521
62,509
63,498
64,498
65,496
66,500
67,494
68,479
69,479
70,464
71,444
72,435
73,416
74,408
75,411
76,430
77,448
78,460
79,473
80,473
81,482
82,495
83,506
84,516
85,529
86,539
87,548
88,532
89,513
90,506
91,507
92,514
93,520
94,517
95,505
96,502
97,488
98,460
99,464
100,487
101,510
102,512
103,494
104,494
105,505
106,517
107,529
108,544
109,555
110,566
111,570
112,572
113,552
114,543
115,525
116,528
117,532
118,520
119,509
120,511
121,510
122,516
123,525
124,540
125,555
126,545
127,527
128,509
129,506
130,518
131,531
132,533
133,511
134,513
135,523
136,529
137,528
138,518
139,513
140,521
141,526
142,518
143,520
144,543
145,559
146,562
147,535
148,500
149,490
150,499
151,512
152,516
153,509
154,511
155,508
156,498
157,486
158,470
159,467
160,468
161,466
162,456
163,454
164,466
165,466
166,480
167,504
168,522
169,525
170,532
171,528
172,524
173,513
174,511
175,499
176,497
177,493
178,485
179,474
180,462
181,465
182,472
183,467
184,477
185,489
186,502
187,514
188,498
189,502
190,499
191,498
192,507
193,506
194,512
195,523
196,519
197,504
198,478
199,473
200,477
201,491
202,495
203,485
204,480
205,473
206,465
207,454
208,440
209,440
210,450
211,456
212,458
213,436
214,423
215,419
216,423
217,429
218,424
219,441
220,480
221,521
222,540
223,536
224,519
225,523
226,538
227,529
228,510
229,504
230,511
231,516
232,516
233,504
234,497
235,512
236,532
237,544
238,541
239,544
240,541
241,535
242,523
243,500
244,495
245,492
246,493
247,489
248,484
249,482
250,478
251,485
252,501
253,523
254,552
255,574
256,587
257,583
258,575
259,582
260,587
261,583
262,568
263,551
264,542
265,543
266,532
267,521
268,505
269,505
270,514
271,524
272,508
273,502
274,510
275,523
276,531
277,521
278,497
279,472
280,453
281,440
282,432
283,417
284,410
285,423
286,447
287,468
288,480
289,498
290,498
291,492
292,485
293,472
294,469
295,465
296,476
297,499
298,509
299,518
300,520
301,511
302,493
303,465
304,457
305,457
306,471
307,485
308,484
309,495
310,510
311,524
312,544
313,548
314,558
315,562
316,557
317,558
318,563
319,579
320,605
321,612
322,609
323,599
324,590
325,591
326,594
327,577
328,553
329,537
330,521
331,517
332,514
333,492
334,480
335,478
336,487
337,492
338,498
339,519
340,533
341,534
342,516
343,498
344,496
345,510
346,523
347,523
348,504
349,494
350,491
351,492
352,494
353,487
354,480
355,475
356,478
357,479
358,470
359,479
360,507
361,524
362,532
363,534
364,539
365,547
366,556
367,561
368,569
369,587
370,598
371,608
372,599
373,568
374,553
375,543
376,545
377,524
378,502
379,495
380,492
381,505
382,512
383,504
384,504
385,515
386,523
387,514
388,482
389,463
390,454
391,446
392,448
393,448
394,459
395,477
396,503
397,528
398,523
399,529
400,521
401,499
402,479
403,463
404,465
405,469
406,465
407,457
408,447
409,449
410,464
411,489
412,508
413,503
414,512
415,526
416,532
417,537
418,537
419,544
420,544
421,534
422,513
423,489
424,493
425,510
426,529
427,539
428,536
429,540
430,554
431,570
432,575
433,583
434,561
435,554
436,552
437,523
438,495
439,488
440,496
441,480
442,455
443,429
444,420
445,433
446,444
447,432
448,418
449,421
450,438
451,455
452,473
453,480
454,480
455,469
456,466
457,462
458,451
459,454
460,470
461,485
462,497
463,506
464,510
465,516
466,519
467,520
468,519
469,522
470,526
471,534
472,542
473,544
474,557
475,561
476,558
477,546
478,526
479,528
480,535
481,538
482,534
483,517
484,516
485,532
486,531
487,512
488,493
489,493
490,500
491,522
492,545
493,548
494,545
495,551
496,568
497,562
498,539
499,534
500,534
501,537
502,535
503,520
504,521
505,531
506,528
507,512
508,485
509,475
510,470
511,476
512,494
513,498
514,483
515,464
516,466
517,454
518,437
519,436
520,428
521,438
522,461
523,479
524,483
525,488
526,500
527,500
528,482
529,460
530,455
531,469
532,479
533,482
534,485
535,477
536,482
537,486
538,486
539,501
540,506
541,504
542,506
543,491
544,486
545,509
546,527
547,527
548,530
549,528
550,544
551,561
552,580
553,572
554,572
555,573
556,572
557,557
558,539
559,539
560,545
561,560
562,570
563,563
564,567
565,572
566,583
567,581
568,567
569,564
570,553
571,531
572,507
573,476
574,453
575,463
576,487
577,486
578,483
579,490
580,503
581,522
582,539
583,525
584,512
585,499
586,504
587,504
588,494
589,496
590,501
591,519
592,521
593,509
594,500
595,501
596,501
597,498
598,500
599,512
600,529
601,548
602,545
603,535
604,547
605,562
606,563
607,559
608,548
609,550
610,558
611,563
612,547
613,524
614,527
615,533
616,521
617,507
618,483
619,479
620,487
621,499
622,513
623,524
624,547
625,561
626,565
627,564
628,546
629,539
630,547
631,548
632,550
633,529
634,530
635,539
636,539
637,531
638,524
639,533
640,537
641,538
642,536
643,521
644,516
645,508
646,506
647,497
648,478
649,481
650,498
651,518
652,534
653,521
654,523
655,508
656,491
657,479
658,466
659,481
660,503
661,519
662,512
663,497
664,476
665,465
666,468
667,455
668,438
669,453
670,479
671,499
672,498
673,499
674,472
675,448
676,441
677,438
678,431
679,432
680,434
681,436
682,439
683,441
684,449
685,460
686,467
687,486
688,507
689,525
690,533
691,525
692,528
693,530
694,530
695,524
696,523
697,513
698,499
699,499
700,507
701,501
702,498
703,513
704,541
705,560
706,571
707,568
708,557
709,545
710,530
711,524
712,531
713,545
714,557
715,563
716,551
717,540
718,538
719,551
720,558
721,558
722,558
723,552
724,539
725,548
726,542
727,538
728,537
729,537
730,538
731,540
732,537
733,523
734,519
735,531
736,545
737,551
738,547
739,547
740,550
741,560
742,569
743,566
744,566
745,572
746,571
747,553
748,526
749,526
750,535
751,544
752,552
753,530
754,538
755,544
756,542
757,544
758,545
759,540
760,542
761,543
762,530
763,508
764,497
765,499
766,514
767,527
768,507
769,513
770,522
771,530
772,543
773,542
774,558
775,586
776,592
777,599
778,580
779,581
780,587
781,588
782,581
783,557
784,545
785,545
786,541
787,534
788,533
789,539
790,536
791,530
792,525
793,509
794,495
795,481
796,467
797,446
798,420
799,425
800,440
801,451
802,448
803,443
804,455
805,467
806,473
807,478
808,481
809,469
810,470
811,468
812,475
813,483
814,495
815,499
816,499
817,510
818,517
819,522
820,532
821,539
822,537
823,530
824,538
825,544
826,537
827,521
828,496
829,502
830,513
831,526
832,538
833,531
834,526
835,524
836,516
837,498
838,479
839,458
840,459
841,464
842,468
843,460
844,451
845,428
846,417
847,415
848,424
849,445
850,473
851,483
852,466
853,447
854,460
855,476
856,492
857,496
858,480
859,472
860,468
861,458
862,450
863,440
864,461
865,487
866,497
867,508
868,510
869,521
870,538
871,526
872,526
873,512
874,509
875,514
876,507
877,496
878,476
879,470
880,473
881,478
882,484
883,495
884,514
885,519
886,520
887,518
888,524
889,524
890,523
891,525
892,519
893,504
894,505
895,515
896,517
897,518
898,505
899,507
900,509
901,501
902,492
903,489
904,512
905,535
906,543
907,531
908,502
909,495
910,493
911,489
912,488
913,490
914,500
915,516
916,518
917,519
918,516
919,524
920,526
921,528
922,540
923,546
924,555
925,561
926,557
927,538
928,519
929,513
930,509
931,502
932,499
933,486
934,478
935,467
936,459
937,458
938,451
939,464
940,481
941,499
942,496
943,481
944,475
945,485
946,493
947,495
948,478
949,468
950,488
951,487
952,485
953,464
954,459
955,465
956,483
957,487
958,465
959,467
960,467
961,466
962,463
963,465
964,472
965,476
966,482
967,458
968,445
969,449
970,469
971,486
972,503
973,513
974,520
975,534
976,548
977,543
978,526
979,517
980,514
981,529
982,538
983,540
984,545
985,541
986,543
987,523
988,501
989,499
990,502
991,496
992,496
993,487
994,497
995,495
996,498
997,483
998,470
999,480
1000,498
1001,512
1002,514
1003,500
1004,504
1005,521
1006,526
1007,519
1008,504
1009,493
1010,491
1011,498
1012,501
1013,508
1014,530
1015,546
1016,547
1017,553
1018,542
1019,526
1020,520
1021,518
1022,519
1023,515
1024,527
1025,538
1026,538
1027,546
1028,557
1029,576
1030,582
1031,566
1032,551
1033,529
1034,516
1035,515
1036,518
1037,519
1038,524
1039,539
1040,552
1041,560
1042,545
1043,522
1044,520
1045,510
1046,502
1047,503
1048,499
1049,508
1050,524
1051,523
1052,522
1053,509
1054,513
1055,518
1056,523
1057,523
1058,504
1059,491
1060,487
1061,479
1062,472
1063,461
1064,460
1065,462
1066,472
1067,476
1068,463
1069,476
1070,496
1071,503
1072,507
1073,505
1074,526
1075,546
1076,561
1077,573
1078,572
1079,572
1080,534
1081,487
1082,461
1083,449
1084,454
1085,460
1086,465
1087,431
1088,401
1089,400
1090,417
1091,441
1092,448
1093,451
1094,477
1095,498
1096,523
1097,538
1098,535
1099,549
1100,570
1101,583
1102,585
1103,575
1104,584
1105,578
1106,571
1107,563
1108,543
1109,536
1110,524
1111,513
1112,497
1113,489
1114,505
1115,511
1116,496
1117,464
1118,442
1119,436
1120,444
1121,448
1122,457
1123,461
1124,479
1125,498
1126,498
1127,489
1128,474
1129,460
1130,450
1131,452
1132,460
1133,436
1134,432
1135,433
1136,444
1137,443
1138,436
1139,430
1140,434
1141,454
1142,456
1143,456
1144,463
1145,475
1146,490
1147,501
1148,502
1149,489
1150,475
1151,472
1152,473
1153,470
1154,489
1155,510
1156,508
1157,503
1158,477
1159,472
1160,461
1161,452
1162,466
1163,455
1164,471
1165,486
1166,486
1167,492
1168,496
1169,518
1170,537
1171,550
1172,560
1173,553
1174,552
1175,555
1176,567
1177,575
1178,575
1179,581
1180,587
1181,582
1182,571
1183,547
1184,547
1185,543
1186,536
1187,518
1188,491
1189,476
1190,473
1191,491
1192,500
1193,494
1194,494
1195,491
1196,518
1197,538
1198,540
1199,528
1200,514
1201,508
1202,485
1203,447
1204,437
1205,459
1206,500
1207,504
1208,498
1209,504
1210,512
1211,537
1212,541
1213,536
1214,525
1215,528
1216,533
1217,537
1218,526
1219,526
1220,535
1221,551
1222,557
1223,540
1224,537
1225,539
1226,544
1227,543
1228,527
1229,510
1230,497
1231,482
1232,468
1233,457
1234,471
1235,496
1236,507
1237,503
1238,474
1239,474
1240,482
1241,498
1242,513
1243,522
1244,540
1245,564
1246,581
1247,592
1248,582
1249,554
1250,548
1251,551
1252,559
1253,541
1254,541
1255,561
1256,561
1257,557
1258,545
1259,530
1260,537
1261,558
1262,570
1263,560
1264,559
1265,550
1266,549
1267,547
1268,537
1269,528
1270,519
1271,516
1272,503
1273,486
1274,484
1275,478
1276,457
1277,435
1278,424
1279,444
1280,467
1281,475
1282,479
1283,468
1284,481
1285,499
1286,504
1287,506
1288,509
1289,511
1290,505
1291,492
1292,480
1293,456
1294,459
1295,481
1296,500
1297,507
1298,500
1299,510
1300,531
1301,538
1302,529
1303,515
1304,517
1305,531
1306,537
1307,530
1308,505
1309,505
1310,502
1311,495
1312,503
1313,502
1314,507
1315,507
1316,510
1317,513
1318,507
1319,509
1320,526
1321,547
1322,539
1323,508
1324,496
1325,494
1326,512
1327,516
1328,492
1329,447
1330,419
1331,420
1332,433
1333,442
1334,457
1335,468
1336,479
1337,478
1338,462
1339,464
1340,477
1341,482
1342,484
1343,476
1344,485
1345,492
1346,495
1347,492
1348,482
1349,490
1350,496
1351,499
1352,510
1353,504
1354,506
1355,504
1356,494
1357,479
1358,472
1359,485
1360,499
1361,514
1362,516
1363,502
1364,500
1365,510
1366,522
1367,514
1368,507
1369,527
1370,543
1371,552
1372,550
1373,538
1374,534
1375,530
1376,525
1377,524
1378,521
1379,523
1380,542
1381,524
1382,513
1383,525
1384,545
1385,548
1386,550
1387,568
1388,577
1389,589
1390,607
1391,603
1392,608
1393,592
1394,591
1395,606
1396,610
1397,597
1398,569
1399,563
1400,563
1401,560
1402,555
1403,535
1404,523
1405,524
1406,538
1407,557
1408,556
1409,535
1410,523
1411,528
1412,524
1413,503
1414,477
1415,454
1416,446
1417,438
1418,439
1419,453
1420,467
1421,481
1422,487
1423,489
1424,506
1425,541
1426,560
1427,560
1428,549
1429,550
1430,547
1431,535
1432,525
1433,515
1434,525
1435,539
1436,541
1437,531
1438,510
1439,505
1440,500
1441,483
1442,462
1443,438
1444,443
1445,466
1446,472
1447,475
1448,445
1449,450
1450,462
1451,473
1452,487
1453,498
1454,517
1455,527
1456,529
1457,524
1458,513
1459,522
1460,536
1461,555
1462,578
1463,583
1464,578
1465,568
1466,570
1467,567
1468,548
1469,534
1470,529
1471,536
1472,532
1473,507
1474,478
1475,454
1476,450
1477,435
1478,415
1479,422
1480,430
1481,439
1482,452
1483,459
1484,477
1485,499
1486,504
1487,504
1488,501
1489,523
1490,555
1491,570
1492,567
1493,553
1494,539
1495,530
1496,531
1497,524
1498,508
1499,496
1500,493
1501,494
1502,483
1503,463
1504,467
1505,481
1506,490
1507,491
1508,482
1509,476
1510,472
1511,454
1512,440
1513,431
1514,433
1515,449
1516,465
1517,492
1518,514
1519,540
1520,548
1521,544
1522,533
1523,515
1524,514
1525,522
1526,537
1527,528
1528,506
1529,492
1530,493
1531,506
1532,504
1533,491
1534,483
1535,482
1536,486
1537,474
1538,447
1539,429
1540,419
1541,429
1542,445
1543,452
1544,468
1545,487
1546,504
1547,521
1548,519
1549,520
1550,518
1551,515
1552,517
1553,519
1554,535
1555,552
1556,549
1557,539
1558,518
1559,507
1560,495
1561,475
1562,455
1563,424
1564,419
1565,432
1566,455
1567,468
1568,466
1569,473
1570,483
1571,501
1572,512
1573,509
1574,524
1575,546
1576,556
1577,550
1578,523
1579,504
1580,504
1581,525
1582,530
1583,525
1584,536
1585,556
1586,564
1587,567
1588,555
1589,546
1590,541
1591,534
1592,527
1593,516
1594,511
1595,502
1596,489
1597,480
1598,478
1599,484
1600,492
1601,505
1602,527
1603,533
1604,531
1605,529
1606,531
1607,525
1608,526
1609,523
1610,522
1611,529
1612,530
1613,515
1614,507
1615,503
1616,518
1617,523
1618,510
1619,508
1620,508
1621,495
1622,480
1623,468
1624,478
1625,497
1626,516
1627,532
1628,545
1629,542
1630,527
1631,526
1632,542
1633,540
1634,535
1635,540
1636,558
1637,555
1638,551
1639,565
1640,577
1641,570
1642,553
1643,530
1644,520
1645,522
1646,518
1647,520
1648,516
1649,514
1650,503
1651,504
1652,503
1653,494
1654,505
1655,518
1656,527
1657,534
1658,531
1659,535
1660,537
1661,537
1662,535
1663,532
1664,534
1665,535
1666,540
1667,549
1668,540
1669,531
1670,515
1671,512
1672,510
1673,489
1674,473
1675,471
1676,485
1677,502
1678,513
1679,521
1680,534
1681,540
1682,549
1683,543
1684,543
1685,549
1686,565
1687,572
1688,555
1689,547
1690,550
1691,563
1692,563
1693,529
1694,516
1695,511
1696,496
1697,489
1698,461
1699,438
1700,430
1701,427
1702,435
1703,443
1704,467
1705,494
1706,519
1707,529
1708,524
1709,527
1710,524
1711,518
1712,514
1713,495
1714,487
1715,487
1716,480
1717,480
1718,485
1719,497
1720,513
1721,525
1722,526
1723,518
1724,526
1725,540
1726,543
1727,543
1728,551
1729,561
1730,572
1731,544
1732,539
1733,529
1734,522
1735,526
1736,526
1737,529
1738,543
1739,550
1740,579
1741,601
1742,614
1743,612
1744,611
1745,604
1746,606
1747,592
1748,565
1749,560
1750,564
1751,563
1752,550
1753,537
1754,538
1755,531
1756,520
1757,518
1758,508
1759,500
1760,497
1761,508
1762,524
1763,507
1764,507
1765,515
1766,532
1767,537
1768,519
1769,518
1770,531
1771,541
1772,537
1773,514
1774,506
1775,500
1776,503
1777,506
1778,500
1779,502
1780,503
1781,494
1782,478
1783,458
1784,469
1785,482
1786,497
1787,500
1788,496
1789,495
1790,501
1791,510
1792,516
1793,521
1794,531
1795,533
1796,530
1797,518
1798,515
1799,534
1800,549
1801,550
1802,540
1803,541
1804,528
1805,524
1806,504
1807,485
1808,471
1809,483
1810,495
1811,491
1812,504
1813,517
1814,532
1815,536
1816,514
1817,500
1818,490
1819,487
1820,485
1821,480
1822,475
1823,467
1824,484
1825,499
1826,513
1827,516
1828,504
1829,496
1830,499
1831,479
1832,460
1833,433
1834,433
1835,450
1836,468
1837,468
1838,447
1839,439
1840,460
1841,459
1842,479
1843,494
1844,520
1845,539
1846,551
1847,554
1848,542
1849,541
1850,532
1851,516
1852,495
1853,466
1854,469
1855,476
1856,477
1857,475
1858,463
1859,465
1860,467
1861,477
1862,490
1863,476
1864,489
1865,504
1866,512
1867,511
1868,504
1869,497
1870,492
1871,496
1872,501
1873,494
1874,494
1875,507
1876,521
1877,523
1878,498
1879,493
1880,500
1881,513
1882,526
1883,518
1884,521
1885,532
1886,543
1887,554
1888,545
1889,531
1890,513
1891,507
1892,505
1893,505
1894,516
1895,520
1896,520
1897,496
1898,467
1899,447
1900,438
1901,443
1902,448
1903,447
1904,454
1905,467
1906,498
1907,494
1908,460
1909,449
1910,447
1911,453
1912,468
1913,473
1914,482
1915,487
1916,498
1917,498
1918,480
1919,481
1920,484
1921,477
1922,484
1923,495
1924,517
1925,533
1926,544
1927,544
1928,536
1929,539
1930,549
1931,551
1932,546
1933,526
1934,529
1935,533
1936,529
1937,513
1938,486
1939,482
1940,493
1941,504
1942,511
1943,497
1944,503
1945,516
1946,532
1947,535
1948,524
1949,530
1950,534
1951,537
1952,519
1953,486
1954,468
1955,468
1956,476
1957,469
1958,458
1959,458
1960,458
1961,458
1962,454
1963,444
1964,434
1965,428
1966,446
1967,480
1968,497
1969,523
1970,552
1971,561
1972,559
1973,551
1974,543
1975,524
1976,507
1977,493
1978,475
1979,478
1980,491
1981,507
1982,508
1983,492
1984,478
1985,470
1986,481
1987,503
1988,517
1989,543
1990,548
1991,540
1992,534
1993,518
1994,521
1995,524
1996,513
1997,506
1998,504
1999,507
