timestamp,signal
0,477
1,469
2,461
3,457
4,466
5,469
6,468
7,461
8,454
9,465
10,472
11,477
12,479
13,469
14,470
15,481
16,503
17,511
18,491
19,480
20,481
21,490
22,496
23,478
24,466
25,459
26,464
27,476
28,480
29,491
30,504
31,512
32,515
33,515
34,519
35,514
36,501
37,499
38,492
39,504
40,510
41,509
42,503
43,485
44,480
45,472
46,470
47,476
48,489
49,505
50,511
51,520
52,533
53,545
54,554
55,558
56,567
57,565
58,555
59,545
60,545
61,547
62,553
63,555
64,562
65,555
66,530
67,490
68,448
69,436
70,453
71,477
72,488
73,483
74,479
75,476
76,465
77,478
78,478
79,496
80,510
81,524
82,527
83,525
84,528
85,519
86,496
87,480
88,473
89,486
90,500
91,506
92,508
93,494
94,486
95,487
96,488
97,478
98,472
99,477
100,493
101,498
102,512
103,532
104,554
105,570
106,580
107,586
108,592
109,606
110,611
111,600
112,588
113,575
114,568
115,566
116,558
117,536
118,504
119,473
120,453
121,443
122,440
123,448
124,466
125,484
126,483
127,474
128,464
129,467
130,480
131,487
132,480
133,480
134,492
135,499
136,512
137,524
138,520
139,522
140,528
141,537
142,539
143,534
144,522
145,508
146,508
147,507
148,505
149,512
150,522
151,534
152,531
153,521
154,515
155,500
156,490
157,498
158,511
159,530
160,545
161,546
162,526
163,502
164,491
165,499
166,505
167,509
168,495
169,500
170,508
171,511
172,491
173,468
174,473
175,485
176,491
177,478
178,463
179,462
180,465
181,481
182,484
183,482
184,480
185,488
186,513
187,504
188,484
189,488
190,487
191,474
192,446
193,438
194,465
195,506
196,537
197,554
198,554
199,546
200,531
201,519
202,496
203,465
204,455
205,463
206,460
207,463
208,459
209,471
210,492
211,509
212,509
213,493
214,486
215,481
216,484
217,487
218,478
219,484
220,491
221,502
222,507
223,504
224,511
225,504
226,497
227,496
228,491
229,505
230,513
231,507
232,506
233,502
234,525
235,521
236,536
237,542
238,541
239,529
240,519
241,515
242,502
243,483
244,470
245,465
246,474
247,483
248,486
249,488
250,492
251,505
252,506
253,488
254,473
255,457
256,444
257,433
258,431
259,459
260,484
261,523
262,547
263,556
264,560
265,556
266,555
267,556
268,558
269,571
270,596
271,618
272,625
273,612
274,593
275,582
276,569
277,571
278,575
279,576
280,576
281,566
282,545
283,517
284,497
285,486
286,476
287,467
288,450
289,460
290,479
291,487
292,500
293,508
294,537
295,549
296,559
297,558
298,544
299,527
300,518
301,511
302,504
303,490
304,492
305,504
306,504
307,510
308,521
309,536
310,540
311,524
312,513
313,508
314,507
315,512
316,516
317,522
318,514
319,513
320,511
321,505
322,501
323,487
324,482
325,468
326,462
327,467
328,458
329,455
330,449
331,441
332,424
333,406
334,410
335,426
336,453
337,475
338,474
339,493
340,521
341,532
342,540
343,514
344,513
345,520
346,532
347,532
348,531
349,545
350,534
351,529
352,528
353,544
354,577
355,595
356,601
357,596
358,585
359,584
360,585
361,578
362,572
363,564
364,561
365,564
366,554
367,558
368,571
369,576
370,569
371,557
372,552
373,539
374,527
375,521
376,515
377,512
378,510
379,516
380,518
381,518
382,523
383,525
384,529
385,533
386,524
387,528
388,533
389,534
390,536
391,529
392,532
393,534
394,540
395,553
396,559
397,560
398,556
399,564
400,558
401,546
402,540
403,523
404,515
405,516
406,521
407,518
408,494
409,490
410,495
411,500
412,498
413,495
414,504
415,512
416,511
417,504
418,470
419,445
420,440
421,433
422,430
423,415
424,419
425,441
426,454
427,464
428,462
429,470
430,479
431,486
432,487
433,493
434,498
435,498
436,481
437,473
438,475
439,483
440,492
441,512
442,522
443,522
444,524
445,530
446,527
447,525
448,513
449,517
450,522
451,515
452,501
453,489
454,499
455,505
456,516
457,513
458,495
459,473
460,451
461,424
462,411
463,406
464,430
465,454
466,462
467,470
468,478
469,480
470,487
471,495
472,503
473,498
474,491
475,476
476,469
477,462
478,444
479,432
480,426
481,429
482,432
483,426
484,427
485,441
486,453
487,440
488,429
489,433
490,436
491,454
492,463
493,480
494,511
495,549
496,562
497,572
498,577
499,581
500,592
501,591
502,580
503,558
504,545
505,530
506,514
507,498
508,482
509,480
510,483
511,483
512,471
513,455
514,464
515,477
516,484
517,492
518,504
519,517
520,540
521,561
522,561
523,547
524,532
525,516
526,507
527,485
528,460
529,453
530,443
531,447
532,444
533,439
534,457
535,480
536,496
537,515
538,523
539,539
540,556
541,565
542,555
543,538
544,544
545,542
546,535
547,521
548,487
549,478
550,484
551,501
552,511
553,498
554,496
555,496
556,500
557,496
558,484
559,492
560,515
561,532
562,541
563,535
564,522
565,521
566,517
567,503
568,492
569,500
570,521
571,540
572,527
573,498
574,491
575,468
576,466
577,472
578,473
579,483
580,493
581,502
582,509
583,508
584,519
585,533
586,535
587,531
588,530
589,552
590,575
591,579
592,600
593,593
594,585
595,586
596,600
597,604
598,597
599,595
600,591
601,592
602,577
603,550
604,543
605,540
606,524
607,515
608,504
609,500
610,494
611,495
612,489
613,472
614,461
615,454
616,460
617,448
618,418
619,396
620,401
621,405
622,409
623,415
624,433
625,457
626,483
627,480
628,455
629,446
630,451
631,464
632,473
633,472
634,468
635,476
636,498
637,503
638,511
639,525
640,539
641,548
642,556
643,547
644,543
645,545
646,547
647,538
648,513
649,503
650,498
651,491
652,473
653,438
654,421
655,432
656,445
657,455
658,461
659,477
660,504
661,527
662,541
663,541
664,542
665,558
666,559
667,548
668,540
669,527
670,514
671,509
672,505
673,494
674,499
675,508
676,514
677,506
678,493
679,491
680,495
681,508
682,536
683,551
684,550
685,544
686,542
687,546
688,556
689,565
690,568
691,550
692,534
693,534
694,545
695,537
696,523
697,514
698,505
699,503
700,513
701,493
702,476
703,465
704,466
705,476
706,495
707,505
708,505
709,504
710,510
711,499
712,483
713,463
714,463
715,483
716,492
717,486
718,475
719,472
720,482
721,496
722,507
723,504
724,500
725,500
726,499
727,487
728,485
729,498
730,497
731,496
732,495
733,496
734,509
735,523
736,538
737,532
738,511
739,500
740,500
741,502
742,513
743,519
744,531
745,545
746,543
747,548
748,558
749,568
750,569
751,580
752,577
753,578
754,588
755,604
756,607
757,593
758,568
759,554
760,540
761,537
762,526
763,497
764,479
765,472
766,474
767,485
768,492
769,495
770,493
771,478
772,457
773,445
774,455
775,484
776,521
777,530
778,519
779,516
780,516
781,523
782,516
783,498
784,496
785,502
786,512
787,507
788,493
789,486
790,475
791,469
792,459
793,452
794,459
795,466
796,473
797,466
798,464
799,469
800,480
801,504
802,519
803,517
804,524
805,540
806,547
807,542
808,544
809,554
810,543
811,526
812,509
813,510
814,519
815,526
816,535
817,542
818,554
819,572
820,590
821,584
822,588
823,587
824,591
825,581
826,560
827,531
828,499
829,499
830,506
831,504
832,496
833,480
834,478
835,486
836,502
837,494
838,477
839,468
840,477
841,505
842,521
843,523
844,530
845,539
846,551
847,546
848,535
849,538
850,548
851,550
852,558
853,555
854,557
855,556
856,552
857,542
858,529
859,520
860,523
861,531
862,531
863,531
864,535
865,534
866,528
867,535
868,543
869,556
870,563
871,563
872,555
873,544
874,551
875,551
876,539
877,529
878,526
879,538
880,549
881,549
882,544
883,544
884,548
885,555
886,556
887,551
888,533
889,531
890,527
891,516
892,493
893,475
894,480
895,492
896,507
897,512
898,487
899,466
900,457
901,445
902,441
903,443
904,458
905,475
906,486
907,492
908,496
909,507
910,500
911,501
912,474
913,450
914,437
915,414
916,396
917,381
918,377
919,385
920,398
921,409
922,407
923,393
924,395
925,411
926,412
927,417
928,434
929,452
930,475
931,487
932,491
933,491
934,505
935,524
936,539
937,545
938,538
939,545
940,557
941,577
942,597
943,609
944,613
945,615
946,619
947,604
948,601
949,604
950,603
951,598
952,616
953,591
954,563
955,526
956,502
957,472
958,438
959,429
960,432
961,439
962,461
963,477
964,503
965,520
966,523
967,515
968,500
969,508
970,523
971,536
972,535
973,514
974,508
975,496
976,479
977,467
978,456
979,452
980,450
981,457
982,470
983,467
984,473
985,481
986,485
987,494
988,496
989,508
990,510
991,515
992,516
993,514
994,511
995,519
996,522
997,522
998,518
999,524
1000,509
1001,505
1002,476
1003,436
1004,424
1005,448
1006,472
1007,488
1008,497
1009,502
1010,509
1011,518
1012,510
1013,492
1014,492
1015,498
1016,517
1017,527
1018,533
1019,538
1020,536
1021,539
1022,532
1023,502
1024,490
1025,484
1026,479
1027,488
1028,496
1029,510
1030,512
1031,508
1032,498
1033,484
1034,491
1035,497
1036,512
1037,523
1038,518
1039,513
1040,515
1041,528
1042,515
1043,487
1044,462
1045,453
1046,465
1047,484
1048,485
1049,486
1050,506
1051,526
1052,526
1053,527
1054,541
1055,551
1056,558
1057,560
1058,542
1059,536
1060,536
1061,544
1062,557
1063,556
1064,563
1065,551
1066,540
1067,535
1068,537
1069,543
1070,530
1071,500
1072,476
1073,459
1074,457
1075,467
1076,479
1077,483
1078,491
1079,510
1080,522
1081,525
1082,519
1083,508
1084,508
1085,493
1086,475
1087,455
1088,440
1089,449
1090,464
1091,475
1092,467
1093,454
1094,460
1095,467
1096,476
1097,496
1098,508
1099,516
1100,536
1101,552
1102,553
1103,537
1104,517
1105,500
1106,490
1107,488
1108,490
1109,517
1110,544
1111,560
1112,555
1113,550
1114,554
1115,556
1116,571
1117,551
1118,537
1119,527
1120,506
1121,497
1122,492
1123,489
1124,494
1125,499
1126,495
1127,483
1128,474
1129,475
1130,481
1131,496
1132,482
1133,463
1134,469
1135,476
1136,489
1137,507
1138,495
1139,485
1140,482
1141,480
1142,480
1143,492
1144,501
1145,522
1146,539
1147,525
1148,496
1149,491
1150,495
1151,499
1152,496
1153,480
1154,487
1155,500
1156,511
1157,511
1158,497
1159,498
1160,497
1161,492
1162,493
1163,492
1164,500
1165,511
1166,515
1167,535
1168,546
1169,549
1170,549
1171,552
1172,548
1173,535
1174,522
1175,505
1176,498
1177,483
1178,471
1179,483
1180,508
1181,530
1182,545
1183,552
1184,554
1185,550
1186,555
1187,537
1188,530
1189,531
1190,522
1191,513
1192,475
1193,430
1194,405
1195,409
1196,428
1197,440
1198,462
1199,489
1200,503
1201,519
1202,524
1203,514
1204,510
1205,508
1206,512
1207,503
1208,493
1209,493
1210,496
1211,495
1212,471
1213,455
1214,461
1215,472
1216,486
1217,505
1218,521
1219,534
1220,555
1221,578
1222,592
1223,599
1224,615
1225,615
1226,596
1227,578
1228,557
1229,563
1230,563
1231,565
1232,573
1233,588
1234,607
1235,609
1236,592
1237,558
1238,521
1239,507
1240,504
1241,500
1242,501
1243,492
1244,499
1245,501
1246,505
1247,510
1248,500
1249,508
1250,526
1251,545
1252,554
1253,536
1254,540
1255,545
1256,543
1257,538
1258,527
1259,522
1260,526
1261,534
1262,522
1263,515
1264,522
1265,540
1266,547
1267,540
1268,532
1269,540
1270,557
1271,552
1272,538
1273,512
1274,509
1275,522
1276,536
1277,527
1278,495
1279,475
1280,474
1281,479
1282,460
1283,444
1284,443
1285,452
1286,456
1287,458
1288,472
1289,465
1290,471
1291,494
1292,514
1293,516
1294,527
1295,514
1296,518
1297,507
1298,488
1299,481
1300,488
1301,489
1302,494
1303,500
1304,516
1305,521
1306,527
1307,528
1308,520
1309,528
1310,520
1311,496
1312,464
1313,441
1314,437
1315,455
1316,481
1317,483
1318,479
1319,481
1320,484
1321,502
1322,505
1323,505
1324,514
1325,517
1326,530
1327,522
1328,508
1329,511
1330,502
1331,494
1332,477
1333,457
1334,458
1335,471
1336,482
1337,488
1338,483
1339,487
1340,487
1341,492
1342,509
1343,519
1344,545
1345,578
1346,589
1347,588
1348,588
1349,578
1350,561
1351,552
1352,565
1353,564
1354,546
1355,527
1356,522
1357,512
1358,491
1359,488
1360,499
1361,509
1362,500
1363,479
1364,469
1365,470
1366,474
1367,472
1368,470
1369,488
1370,516
1371,543
1372,561
1373,567
1374,573
1375,560
1376,548
1377,524
1378,494
1379,483
1380,482
1381,479
1382,472
1383,453
1384,452
1385,464
1386,481
1387,494
1388,503
1389,485
1390,479
1391,474
1392,472
1393,452
1394,457
1395,487
1396,501
1397,504
1398,483
1399,470
1400,462
1401,465
1402,449
1403,424
1404,402
1405,388
1406,396
1407,399
1408,400
1409,419
1410,453
1411,482
1412,487
1413,475
1414,470
1415,467
1416,487
1417,506
1418,499
1419,496
1420,503
1421,510
1422,524
1423,531
1424,540
1425,546
1426,551
1427,553
1428,546
1429,543
1430,538
1431,530
1432,514
1433,498
1434,500
1435,513
1436,524
1437,513
1438,486
1439,474
1440,476
1441,482
1442,495
1443,510
1444,532
1445,534
1446,546
1447,547
1448,536
1449,537
1450,545
1451,556
1452,550
1453,531
1454,534
1455,531
1456,531
1457,528
1458,530
1459,552
1460,569
1461,577
1462,572
1463,559
1464,550
1465,545
1466,539
1467,538
1468,536
1469,551
1470,568
1471,582
1472,595
1473,618
1474,638
1475,647
1476,638
1477,615
1478,593
1479,591
1480,579
1481,554
1482,529
1483,504
1484,501
1485,486
1486,475
1487,475
1488,483
1489,500
1490,513
1491,525
1492,535
1493,544
1494,558
1495,567
1496,567
1497,570
1498,555
1499,551
1500,566
1501,582
1502,576
1503,556
1504,548
1505,549
1506,558
1507,549
1508,539
1509,551
1510,553
1511,551
1512,530
1513,489
1514,472
1515,468
1516,469
1517,484
1518,492
1519,509
1520,527
1521,531
1522,535
1523,537
1524,539
1525,548
1526,545
1527,538
1528,535
1529,546
1530,558
1531,551
1532,534
1533,515
1534,513
1535,497
1536,478
1537,473
1538,483
1539,508
1540,523
1541,520
1542,514
1543,507
1544,504
1545,502
1546,504
1547,514
1548,486
1549,482
1550,489
1551,499
1552,486
1553,468
1554,472
1555,476
1556,470
1557,453
1558,438
1559,452
1560,478
1561,506
1562,513
1563,502
1564,496
1565,493
1566,492
1567,479
1568,459
1569,454
1570,464
1571,460
1572,442
1573,430
1574,440
1575,453
1576,469
1577,477
1578,494
1579,501
1580,525
1581,534
1582,506
1583,477
1584,463
1585,446
1586,440
1587,428
1588,415
1589,403
1590,403
1591,427
1592,444
1593,445
1594,458
1595,482
1596,502
1597,511
1598,504
1599,498
1600,484
1601,469
1602,456
1603,437
1604,448
1605,450
1606,464
1607,473
1608,475
1609,491
1610,518
1611,538
1612,531
1613,539
1614,560
1615,568
1616,573
1617,574
1618,547
1619,529
1620,520
1621,508
1622,501
1623,497
1624,501
1625,510
1626,526
1627,531
1628,523
1629,527
1630,540
1631,564
1632,548
1633,539
1634,540
1635,532
1636,534
1637,535
1638,519
1639,504
1640,489
1641,492
1642,490
1643,487
1644,499
1645,514
1646,525
1647,522
1648,514
1649,516
1650,521
1651,516
1652,505
1653,487
1654,494
1655,510
1656,529
1657,540
1658,524
1659,517
1660,517
1661,518
1662,512
1663,504
1664,511
1665,531
1666,544
1667,548
1668,531
1669,517
1670,507
1671,520
1672,533
1673,537
1674,523
1675,500
1676,497
1677,480
1678,456
1679,450
1680,444
1681,450
1682,438
1683,419
1684,408
1685,426
1686,449
1687,463
1688,476
1689,504
1690,522
1691,531
1692,522
1693,516
1694,521
1695,524
1696,526
1697,522
1698,514
1699,529
1700,537
1701,527
1702,509
1703,498
1704,499
1705,503
1706,516
1707,511
1708,496
1709,496
1710,507
1711,520
1712,527
1713,527
1714,543
1715,565
1716,589
1717,591
1718,576
1719,580
1720,583
1721,571
1722,547
1723,516
1724,500
1725,495
1726,481
1727,464
1728,449
1729,444
1730,465
1731,477
1732,483
1733,473
1734,464
1735,466
1736,477
1737,500
1738,507
1739,516
1740,529
1741,546
1742,539
1743,527
1744,531
1745,539
1746,543
1747,535
1748,515
1749,499
1750,482
1751,480
1752,486
1753,472
1754,456
1755,448
1756,451
1757,452
1758,437
1759,439
1760,458
1761,469
1762,480
1763,476
1764,480
1765,492
1766,511
1767,526
1768,536
1769,552
1770,571
1771,585
1772,573
1773,539
1774,521
1775,525
1776,538
1777,547
1778,550
1779,560
1780,560
1781,540
1782,524
1783,514
1784,529
1785,543
1786,535
1787,529
1788,519
1789,521
1790,518
1791,511
1792,519
1793,531
1794,559
1795,567
1796,553
1797,544
1798,536
1799,526
1800,523
1801,511
1802,508
1803,506
1804,513
1805,518
1806,519
1807,501
1808,475
1809,469
1810,468
1811,474
1812,492
1813,498
1814,515
1815,526
1816,526
1817,532
1818,548
1819,570
1820,576
1821,560
1822,548
1823,545
1824,542
1825,550
1826,546
1827,553
1828,560
1829,568
1830,575
1831,572
1832,550
1833,532
1834,531
1835,537
1836,533
1837,521
1838,492
1839,479
1840,482
1841,485
1842,486
1843,477
1844,455
1845,431
1846,431
1847,440
1848,439
1849,443
1850,470
1851,482
1852,507
1853,521
1854,537
1855,538
1856,535
1857,500
1858,476
1859,472
1860,475
1861,486
1862,490
1863,486
1864,497
1865,511
1866,517
1867,515
1868,496
1869,487
1870,485
1871,486
1872,480
1873,473
1874,484
1875,492
1876,496
1877,489
1878,480
1879,487
1880,499
1881,494
1882,494
1883,498
1884,509
1885,515
1886,514
1887,507
1888,492
1889,493
1890,506
1891,517
1892,511
1893,502
1894,505
1895,515
1896,528
1897,539
1898,546
1899,551
1900,545
1901,542
1902,545
1903,534
1904,519
1905,524
1906,545
1907,545
1908,526
1909,535
1910,542
1911,552
1912,540
1913,520
1914,506
1915,497
1916,501
1917,499
1918,483
1919,477
1920,471
1921,456
1922,434
1923,416
1924,423
1925,440
1926,442
1927,429
1928,422
1929,429
1930,447
1931,473
1932,492
1933,507
1934,520
1935,534
1936,543
1937,538
1938,519
1939,509
1940,519
1941,528
1942,530
1943,522
1944,532
1945,542
1946,543
1947,538
1948,524
1949,531
1950,532
1951,524
1952,508
1953,496
1954,491
1955,480
1956,476
1957,481
1958,482
1959,471
1960,481
1961,497
1962,510
1963,515
1964,519
1965,510
1966,507
1967,497
1968,484
1969,481
1970,481
1971,482
1972,469
1973,460
1974,468
1975,490
1976,520
1977,536
1978,533
1979,528
1980,525
1981,527
1982,524
1983,511
1984,508
1985,512
1986,521
1987,519
1988,509
1989,516
1990,524
1991,540
1992,539
1993,520
1994,520
1995,533
1996,543
1997,550
1998,533
1999,529
