timestamp,signal
0,585
1,596
2,593
3,595
4,588
5,587
6,583
7,578
8,592
9,604
10,606
11,604
12,600
13,608
14,612
15,616
16,614
17,600
18,592
19,563
20,556
21,560
22,551
23,534
24,520
25,514
26,516
27,514
28,502
29,485
30,479
31,483
32,496
33,510
34,520
35,534
36,552
37,560
38,547
39,526
40,503
41,493
42,498
43,490
44,494
45,504
46,513
47,524
48,527
49,526
50,526
51,524
52,537
53,539
54,540
55,540
56,544
57,533
58,530
59,529
60,525
61,513
62,496
63,491
64,503
65,521
66,527
67,526
68,526
69,525
70,532
71,540
72,541
73,531
74,514
75,500
76,494
77,487
78,483
79,478
80,487
81,504
82,527
83,535
84,511
85,497
86,480
87,469
88,456
89,454
90,469
91,487
92,492
93,488
94,491
95,501
96,521
97,532
98,525
99,515
100,510
101,512
102,514
103,498
104,483
105,480
106,474
107,476
108,483
109,491
110,508
111,521
112,525
113,522
114,510
115,496
116,487
117,480
118,487
119,467
120,460
121,463
122,475
123,487
124,497
125,504
126,505
127,512
128,526
129,526
130,512
131,496
132,481
133,475
134,462
135,464
136,482
137,500
138,521
139,530
140,538
141,543
142,534
143,545
144,560
145,568
146,568
147,559
148,556
149,550
150,551
151,552
152,534
153,504
154,465
155,437
156,419
157,419
158,422
159,435
160,434
161,428
162,413
163,400
164,396
165,408
166,432
167,459
168,480
169,498
170,515
171,524
172,533
173,536
174,542
175,545
176,539
177,527
178,504
179,485
180,475
181,478
182,486
183,477
184,459
185,455
186,455
187,462
188,455
189,440
190,430
191,436
192,452
193,472
194,504
195,527
196,534
197,522
198,504
199,489
200,485
201,481
202,475
203,465
204,468
205,485
206,516
207,537
208,550
209,554
210,556
211,555
212,559
213,578
214,585
215,590
216,577
217,565
218,562
219,556
220,542
221,537
222,535
223,529
224,506
225,478
226,477
227,482
228,475
229,467
230,463
231,464
232,472
233,487
234,499
235,522
236,534
237,534
238,532
239,519
240,512
241,500
242,504
243,506
244,492
245,493
246,509
247,508
248,499
249,494
250,502
251,512
252,515
253,497
254,474
255,460
256,454
257,444
258,468
259,497
260,513
261,530
262,541
263,544
264,551
265,567
266,575
267,564
268,558
269,551
270,551
271,553
272,545
273,542
274,520
275,501
276,485
277,487
278,492
279,484
280,485
281,492
282,487
283,480
284,480
285,482
286,491
287,497
288,504
289,504
290,487
291,476
292,485
293,486
294,478
295,483
296,495
297,495
298,494
299,491
300,492
301,487
302,486
303,478
304,478
305,490
306,504
307,498
308,484
309,478
310,462
311,451
312,461
313,463
314,472
315,481
316,492
317,497
318,487
319,487
320,500
321,513
322,509
323,498
324,476
325,469
326,470
327,465
328,465
329,457
330,455
331,462
332,480
333,483
334,478
335,468
336,469
337,494
338,502
339,506
340,517
341,525
342,526
343,520
344,520
345,519
346,500
347,482
348,460
349,443
350,457
351,487
352,507
353,515
354,523
355,537
356,549
357,559
358,555
359,550
360,539
361,535
362,523
363,505
364,480
365,463
366,455
367,449
368,448
369,454
370,481
371,501
372,518
373,529
374,532
375,528
376,532
377,548
378,560
379,566
380,583
381,596
382,595
383,582
384,553
385,545
386,540
387,537
388,550
389,555
390,551
391,540
392,533
393,543
394,556
395,560
396,553
397,537
398,526
399,527
400,535
401,538
402,538
403,538
404,534
405,526
406,509
407,487
408,478
409,484
410,493
411,507
412,533
413,560
414,575
415,592
416,594
417,583
418,578
419,569
420,556
421,539
422,515
423,506
424,515
425,524
426,527
427,533
428,545
429,544
430,542
431,543
432,546
433,548
434,553
435,569
436,561
437,556
438,550
439,540
440,528
441,534
442,553
443,560
444,562
445,571
446,558
447,543
448,521
449,514
450,512
451,497
452,479
453,460
454,452
455,449
456,443
457,447
458,444
459,435
460,445
461,473
462,474
463,474
464,467
465,466
466,489
467,512
468,515
469,505
470,496
471,489
472,485
473,493
474,489
475,472
476,454
477,464
478,479
479,496
480,518
481,525
482,518
483,503
484,507
485,530
486,544
487,555
488,547
489,527
490,510
491,497
492,492
493,487
494,475
495,446
496,434
497,433
498,433
499,441
500,444
501,463
502,484
503,499
504,506
505,496
506,506
507,513
508,508
509,506
510,487
511,486
512,501
513,504
514,483
515,462
516,452
517,452
518,445
519,443
520,462
521,484
522,504
523,512
524,504
525,515
526,518
527,511
528,521
529,535
530,547
531,556
532,546
533,527
534,508
535,503
536,501
537,500
538,492
539,479
540,474
541,471
542,466
543,462
544,456
545,459
546,477
547,499
548,518
549,518
550,514
551,516
552,532
553,524
554,507
555,500
556,489
557,471
558,455
559,436
560,429
561,440
562,459
563,475
564,499
565,508
566,525
567,535
568,529
569,504
570,484
571,477
572,473
573,475
574,472
575,480
576,501
577,520
578,536
579,526
580,519
581,496
582,480
583,468
584,466
585,478
586,485
587,472
588,452
589,439
590,442
591,460
592,473
593,464
594,444
595,432
596,437
597,434
598,425
599,415
600,422
601,444
602,471
603,490
604,482
605,464
606,454
607,456
608,470
609,475
610,485
611,511
612,526
613,528
614,527
615,530
616,535
617,534
618,529
619,522
620,504
621,500
622,505
623,507
624,508
625,518
626,508
627,502
628,491
629,476
630,477
631,479
632,487
633,512
634,528
635,532
636,525
637,516
638,503
639,502
640,515
641,548
642,567
643,579
644,587
645,590
646,589
647,597
648,610
649,626
650,644
651,652
652,638
653,615
654,591
655,572
656,563
657,559
658,561
659,543
660,536
661,540
662,557
663,580
664,602
665,611
666,606
667,595
668,589
669,585
670,588
671,592
672,596
673,600
674,600
675,594
676,583
677,572
678,562
679,548
680,543
681,551
682,556
683,540
684,519
685,512
686,503
687,493
688,482
689,466
690,465
691,471
692,499
693,498
694,507
695,509
696,502
697,482
698,468
699,456
700,452
701,461
702,478
703,488
704,507
705,532
706,543
707,549
708,549
709,543
710,541
711,534
712,526
713,529
714,535
715,532
716,512
717,501
718,500
719,495
720,486
721,492
722,510
723,511
724,508
725,518
726,536
727,547
728,537
729,527
730,521
731,519
732,526
733,530
734,518
735,508
736,491
737,467
738,460
739,456
740,459
741,455
742,451
743,446
744,434
745,443
746,456
747,478
748,484
749,489
750,499
751,505
752,486
753,482
754,487
755,497
756,512
757,515
758,519
759,517
760,526
761,542
762,551
763,551
764,537
765,533
766,521
767,496
768,475
769,463
770,469
771,471
772,472
773,474
774,480
775,493
776,511
777,534
778,546
779,531
780,515
781,513
782,503
783,487
784,484
785,489
786,481
787,472
788,460
789,450
790,449
791,457
792,478
793,483
794,488
795,492
796,497
797,507
798,523
799,536
800,551
801,568
802,578
803,570
804,553
805,530
806,510
807,493
808,477
809,444
810,433
811,443
812,463
813,487
814,502
815,521
816,532
817,520
818,496
819,487
820,497
821,513
822,531
823,536
824,536
825,540
826,535
827,519
828,508
829,503
830,504
831,499
832,496
833,499
834,487
835,485
836,483
837,487
838,490
839,492
840,503
841,510
842,507
843,509
844,506
845,517
846,519
847,516
848,511
849,521
850,540
851,544
852,551
853,557
854,556
855,556
856,556
857,561
858,557
859,542
860,539
861,551
862,553
863,553
864,563
865,560
866,549
867,542
868,545
869,539
870,533
871,537
872,544
873,556
874,566
875,568
876,558
877,558
878,564
879,574
880,579
881,582
882,578
883,573
884,556
885,536
886,524
887,514
888,497
889,476
890,471
891,475
892,480
893,475
894,468
895,483
896,491
897,496
898,507
899,516
900,523
901,533
902,538
903,527
904,517
905,498
906,475
907,464
908,463
909,455
910,445
911,432
912,433
913,431
914,429
915,441
916,449
917,455
918,450
919,447
920,450
921,449
922,445
923,447
924,455
925,482
926,500
927,512
928,522
929,527
930,537
931,542
932,541
933,560
934,551
935,555
936,552
937,549
938,551
939,561
940,567
941,575
942,573
943,573
944,568
945,562
946,564
947,556
948,552
949,551
950,540
951,530
952,531
953,529
954,524
955,530
956,545
957,547
958,547
959,547
960,542
961,535
962,537
963,556
964,569
965,572
966,538
967,523
968,511
969,487
970,469
971,465
972,460
973,451
974,440
975,454
976,482
977,498
978,495
979,483
980,482
981,491
982,491
983,486
984,476
985,476
986,481
987,484
988,480
989,461
990,455
991,445
992,433
993,422
994,424
995,434
996,458
997,481
998,479
999,470
1000,465
1001,465
1002,484
1003,492
1004,496
1005,508
1006,517
1007,525
1008,521
1009,513
1010,510
1011,506
1012,501
1013,484
1014,481
1015,494
1016,514
1017,519
1018,533
1019,542
1020,542
1021,533
1022,520
1023,504
1024,472
1025,459
1026,472
1027,488
1028,499
1029,509
1030,529
1031,540
1032,540
1033,523
1034,499
1035,484
1036,470
1037,463
1038,463
1039,472
1040,479
1041,489
1042,494
1043,487
1044,469
1045,460
1046,459
1047,464
1048,453
1049,435
1050,425
1051,425
1052,438
1053,458
1054,475
1055,483
1056,474
1057,474
1058,468
1059,479
1060,494
1061,512
1062,519
1063,523
1064,507
1065,496
1066,505
1067,509
1068,526
1069,535
1070,540
1071,558
1072,572
1073,584
1074,597
1075,597
1076,596
1077,588
1078,573
1079,562
1080,561
1081,565
1082,583
1083,588
1084,579
1085,559
1086,535
1087,534
1088,526
1089,518
1090,522
1091,504
1092,511
1093,516
1094,504
1095,493
1096,501
1097,522
1098,540
1099,545
1100,555
1101,555
1102,561
1103,564
1104,565
1105,572
1106,568
1107,553
1108,548
1109,545
1110,538
1111,520
1112,504
1113,499
1114,491
1115,494
1116,506
1117,523
1118,514
1119,495
1120,496
1121,487
1122,466
1123,448
1124,425
1125,419
1126,429
1127,450
1128,472
1129,481
1130,498
1131,521
1132,538
1133,553
1134,554
1135,550
1136,541
1137,547
1138,545
1139,537
1140,526
1141,513
1142,519
1143,518
1144,511
1145,501
1146,497
1147,507
1148,509
1149,508
1150,513
1151,512
1152,517
1153,526
1154,523
1155,523
1156,516
1157,509
1158,500
1159,497
1160,519
1161,524
1162,520
1163,504
1164,482
1165,469
1166,453
1167,451
1168,448
1169,453
1170,457
1171,456
1172,455
1173,457
1174,477
1175,491
1176,482
1177,482
1178,488
1179,491
1180,496
1181,504
1182,511
1183,513
1184,518
1185,523
1186,527
1187,529
1188,525
1189,514
1190,508
1191,498
1192,486
1193,470
1194,452
1195,454
1196,463
1197,468
1198,465
1199,465
1200,470
1201,476
1202,486
1203,494
1204,487
1205,494
1206,505
1207,508
1208,501
1209,502
1210,521
1211,528
1212,536
1213,537
1214,522
1215,515
1216,508
1217,499
1218,501
1219,509
1220,519
1221,521
1222,529
1223,535
1224,540
1225,550
1226,553
1227,543
1228,539
1229,536
1230,543
1231,565
1232,562
1233,576
1234,582
1235,574
1236,557
1237,542
1238,540
1239,526
1240,519
1241,517
1242,509
1243,521
1244,533
1245,540
1246,532
1247,511
1248,518
1249,530
1250,544
1251,558
1252,572
1253,578
1254,572
1255,558
1256,540
1257,520
1258,514
1259,498
1260,497
1261,495
1262,491
1263,483
1264,484
1265,497
1266,508
1267,505
1268,500
1269,504
1270,518
1271,531
1272,544
1273,532
1274,515
1275,512
1276,512
1277,512
1278,522
1279,520
1280,510
1281,500
1282,500
1283,507
1284,509
1285,514
1286,524
1287,531
1288,522
1289,518
1290,525
1291,533
1292,536
1293,529
1294,513
1295,512
1296,514
1297,515
1298,513
1299,516
1300,522
1301,521
1302,521
1303,513
1304,501
1305,493
1306,492
1307,493
1308,495
1309,480
1310,471
1311,475
1312,480
1313,475
1314,478
1315,495
1316,517
1317,546
1318,575
1319,558
1320,551
1321,558
1322,560
1323,540
1324,516
1325,512
1326,526
1327,543
1328,538
1329,528
1330,524
1331,518
1332,518
1333,522
1334,537
1335,545
1336,547
1337,555
1338,558
1339,555
1340,558
1341,563
1342,557
1343,541
1344,526
1345,525
1346,524
1347,526
1348,543
1349,548
1350,555
1351,568
1352,565
1353,567
1354,563
1355,568
1356,572
1357,568
1358,572
1359,561
1360,556
1361,563
1362,570
1363,577
1364,575
1365,582
1366,585
1367,585
1368,576
1369,569
1370,560
1371,549
1372,542
1373,527
1374,503
1375,487
1376,495
1377,505
1378,498
1379,474
1380,465
1381,454
1382,437
1383,410
1384,390
1385,397
1386,420
1387,441
1388,430
1389,420
1390,427
1391,436
1392,451
1393,462
1394,463
1395,459
1396,449
1397,452
1398,463
1399,469
1400,475
1401,482
1402,487
1403,484
1404,466
1405,447
1406,447
1407,453
1408,449
1409,443
1410,451
1411,471
1412,476
1413,484
1414,484
1415,495
1416,508
1417,526
1418,536
1419,533
1420,519
1421,508
1422,493
1423,486
1424,493
1425,501
1426,495
1427,489
1428,486
1429,483
1430,491
1431,499
1432,508
1433,519
1434,521
1435,533
1436,551
1437,561
1438,566
1439,570
1440,555
1441,542
1442,527
1443,523
1444,527
1445,535
1446,534
1447,527
1448,532
1449,536
1450,534
1451,527
1452,525
1453,534
1454,535
1455,552
1456,556
1457,536
1458,518
1459,510
1460,523
1461,536
1462,541
1463,555
1464,565
1465,587
1466,597
1467,574
1468,524
1469,467
1470,426
1471,399
1472,391
1473,379
1474,370
1475,371
1476,396
1477,440
1478,487
1479,518
1480,541
1481,563
1482,563
1483,543
1484,516
1485,510
1486,497
1487,492
1488,486
1489,475
1490,465
1491,455
1492,451
1493,453
1494,451
1495,462
1496,473
1497,479
1498,484
1499,494
1500,512
1501,530
1502,537
1503,533
1504,527
1505,524
1506,527
1507,543
1508,546
1509,530
1510,511
1511,491
1512,487
1513,486
1514,487
1515,503
1516,519
1517,526
1518,518
1519,501
1520,495
1521,501
1522,498
1523,494
1524,485
1525,477
1526,467
1527,472
1528,486
1529,491
1530,499
1531,507
1532,516
1533,519
1534,516
1535,500
1536,486
1537,503
1538,513
1539,520
1540,534
1541,539
1542,531
1543,515
1544,496
1545,487
1546,487
1547,494
1548,496
1549,502
1550,510
1551,509
1552,497
1553,487
1554,482
1555,488
1556,509
1557,527
1558,531
1559,519
1560,508
1561,511
1562,513
1563,494
1564,484
1565,492
1566,497
1567,498
1568,502
1569,504
1570,511
1571,521
1572,525
1573,519
1574,516
1575,510
1576,511
1577,519
1578,531
1579,529
1580,531
1581,536
1582,540
1583,525
1584,505
1585,493
1586,486
1587,488
1588,485
1589,474
1590,463
1591,468
1592,477
1593,488
1594,493
1595,505
1596,512
1597,506
1598,497
1599,479
1600,466
1601,463
1602,454
1603,462
1604,473
1605,481
1606,489
1607,493
1608,501
1609,513
1610,524
1611,526
1612,538
1613,510
1614,492
1615,482
1616,487
1617,505
1618,508
1619,492
1620,483
1621,483
1622,482
1623,481
1624,483
1625,495
1626,512
1627,522
1628,508
1629,497
1630,497
1631,509
1632,527
1633,537
1634,543
1635,536
1636,513
1637,506
1638,498
1639,496
1640,499
1641,508
1642,509
1643,488
1644,465
1645,459
1646,449
1647,446
1648,446
1649,447
1650,462
1651,482
1652,499
1653,514
1654,506
1655,516
1656,529
1657,548
1658,552
1659,539
1660,513
1661,503
1662,515
1663,519
1664,516
1665,523
1666,534
1667,522
1668,512
1669,485
1670,461
1671,441
1672,440
1673,433
1674,444
1675,467
1676,494
1677,508
1678,507
1679,499
1680,502
1681,506
1682,512
1683,524
1684,513
1685,502
1686,494
1687,491
1688,486
1689,463
1690,457
1691,450
1692,443
1693,443
1694,458
1695,490
1696,513
1697,517
1698,527
1699,534
1700,543
1701,538
1702,526
1703,537
1704,533
1705,542
1706,542
1707,542
1708,530
1709,513
1710,502
1711,505
1712,521
1713,528
1714,537
1715,545
1716,546
1717,542
1718,529
1719,517
1720,518
1721,527
1722,527
1723,540
1724,537
1725,532
1726,527
1727,516
1728,498
1729,483
1730,482
1731,484
1732,489
1733,502
1734,512
1735,517
1736,527
1737,527
1738,518
1739,508
1740,509
1741,511
1742,506
1743,498
1744,491
1745,499
1746,500
1747,505
1748,524
1749,542
1750,543
1751,546
1752,543
1753,552
1754,559
1755,562
1756,556
1757,546
1758,539
1759,531
1760,536
1761,549
1762,565
1763,568
1764,569
1765,565
1766,564
1767,569
1768,564
1769,552
1770,548
1771,540
1772,541
1773,542
1774,529
1775,531
1776,537
1777,536
1778,524
1779,508
1780,508
1781,513
1782,519
1783,517
1784,507
1785,505
1786,519
1787,523
1788,518
1789,498
1790,492
1791,498
1792,498
1793,510
1794,520
1795,527
1796,544
1797,556
1798,551
1799,533
1800,524
1801,512
1802,502
1803,492
1804,494
1805,501
1806,504
1807,499
1808,495
1809,494
1810,495
1811,485
1812,475
1813,467
1814,457
1815,457
1816,457
1817,462
1818,454
1819,443
1820,444
1821,450
1822,456
1823,461
1824,469
1825,478
1826,492
1827,498
1828,486
1829,467
1830,473
1831,473
1832,477
1833,498
1834,518
1835,536
1836,559
1837,572
1838,577
1839,576
1840,579
1841,580
1842,583
1843,588
1844,594
1845,614
1846,619
1847,596
1848,571
1849,536
1850,540
1851,552
1852,551
1853,554
1854,536
1855,528
1856,531
1857,527
1858,532
1859,539
1860,550
1861,568
1862,562
1863,542
1864,522
1865,524
1866,536
1867,534
1868,515
1869,498
1870,487
1871,472
1872,460
1873,469
1874,467
1875,460
1876,456
1877,446
1878,437
1879,438
1880,456
1881,478
1882,492
1883,496
1884,488
1885,489
1886,496
1887,497
1888,476
1889,443
1890,422
1891,422
1892,423
1893,424
1894,425
1895,429
1896,440
1897,463
1898,471
1899,463
1900,465
1901,475
1902,480
1903,474
1904,472
1905,492
1906,509
1907,517
1908,524
1909,532
1910,543
1911,550
1912,543
1913,534
1914,531
1915,526
1916,528
1917,538
1918,519
1919,486
1920,468
1921,471
1922,476
1923,482
1924,505
1925,513
1926,527
1927,527
1928,510
1929,490
1930,478
1931,477
1932,478
1933,481
1934,484
1935,496
1936,498
1937,484
1938,470
1939,467
1940,469
1941,479
1942,483
1943,496
1944,505
1945,513
1946,520
1947,514
1948,512
1949,511
1950,526
1951,545
1952,560
1953,568
1954,556
1955,546
1956,543
1957,528
1958,511
1959,497
1960,505
1961,521
1962,541
1963,535
1964,524
1965,515
1966,508
1967,515
1968,519
1969,510
1970,512
1971,521
1972,537
1973,539
1974,528
1975,525
1976,550
1977,576
1978,579
1979,565
1980,572
1981,590
1982,595
1983,579
1984,568
1985,546
1986,535
1987,519
1988,507
1989,496
1990,499
1991,502
1992,504
1993,495
1994,471
1995,461
1996,472
1997,486
1998,507
1999,511
