timestamp,signal
0,460
1,459
2,463
3,466
4,468
5,470
6,467
7,464
8,464
9,464
10,465
11,472
12,479
13,483
14,481
15,476
16,474
17,475
18,475
19,476
20,479
21,482
22,482
23,479
24,473
25,471
26,473
27,477
28,483
29,487
30,491
31,496
32,494
33,487
34,485
35,486
36,476
37,468
38,467
39,458
40,449
41,439
42,439
43,445
44,449
45,454
46,456
47,457
48,464
49,470
50,477
51,481
52,486
53,488
54,488
55,484
56,480
57,477
58,479
59,482
60,482
61,477
62,471
63,464
64,463
65,465
66,468
67,469
68,472
69,477
70,483
71,488
72,495
73,497
74,494
75,491
76,492
77,497
78,495
79,492
80,486
81,479
82,475
83,472
84,469
85,472
86,479
87,483
88,489
89,490
90,487
91,484
92,487
93,493
94,496
95,496
96,494
97,492
98,496
99,494
100,491
101,494
102,492
103,487
104,490
105,498
106,499
107,495
108,491
109,484
110,481
111,485
112,486
113,482
114,479
115,477
116,473
117,473
118,475
119,479
120,485
121,489
122,494
123,498
124,498
125,496
126,494
127,497
128,503
129,507
130,508
131,508
132,505
133,504
134,503
135,500
136,493
137,487
138,484
139,485
140,487
141,488
142,491
143,494
144,499
145,504
146,508
147,511
148,509
149,501
150,489
151,479
152,475
153,476
154,483
155,487
156,489
157,488
158,487
159,487
160,490
161,494
162,495
163,494
164,494
165,495
166,493
167,495
168,496
169,495
170,492
171,488
172,485
173,482
174,480
175,476
176,468
177,460
178,460
179,470
180,479
181,483
182,481
183,483
184,488
185,495
186,501
187,501
188,498
189,501
190,503
191,502
192,497
193,490
194,486
195,484
196,486
197,486
198,485
199,483
200,479
201,475
202,477
203,486
204,492
205,494
206,492
207,492
208,497
209,505
210,513
211,526
212,539
213,551
214,562
215,571
216,578
217,590
218,604
219,619
220,635
221,647
222,653
223,654
224,660
225,663
226,656
227,645
228,634
229,624
230,616
231,611
232,605
233,597
234,587
235,572
236,553
237,532
238,513
239,496
240,479
241,467
242,455
243,438
244,419
245,403
246,394
247,389
248,387
249,387
250,389
251,391
252,395
253,397
254,396
255,395
256,400
257,409
258,417
259,423
260,431
261,439
262,448
263,458
264,469
265,481
266,490
267,495
268,495
269,495
270,487
271,478
272,469
273,468
274,470
275,472
276,477
277,481
278,483
279,487
280,492
281,496
282,499
283,506
284,515
285,517
286,514
287,512
288,514
289,514
290,517
291,516
292,513
293,512
294,513
295,517
296,519
297,521
298,511
299,505
300,512
301,522
302,525
303,519
304,514
305,509
306,505
307,501
308,498
309,496
310,490
311,491
312,494
313,501
314,507
315,508
316,508
317,511
318,513
319,515
320,519
321,522
322,523
323,524
324,524
325,524
326,525
327,524
328,522
329,522
330,526
331,531
332,532
333,531
334,531
335,530
336,533
337,535
338,538
339,540
340,539
341,536
342,534
343,533
344,535
345,541
346,547
347,552
348,554
349,555
350,556
351,556
352,555
353,555
354,556
355,556
356,556
357,558
358,560
359,561
360,560
361,563
362,564
363,560
364,557
365,563
366,572
367,583
368,590
369,587
370,581
371,579
372,582
373,587
374,592
375,593
376,592
377,594
378,597
379,598
380,599
381,596
382,591
383,588
384,590
385,586
386,580
387,574
388,572
389,575
390,574
391,571
392,570
393,572
394,572
395,567
396,563
397,559
398,558
399,555
400,548
401,545
402,547
403,548
404,548
405,545
406,541
407,540
408,537
409,534
410,532
411,530
412,524
413,516
414,508
415,498
416,494
417,494
418,496
419,498
420,500
421,500
422,501
423,503
424,503
425,501
426,495
427,482
428,472
429,470
430,468
431,467
432,467
433,470
434,474
435,476
436,473
437,472
438,470
439,470
440,470
441,472
442,476
443,479
444,476
445,469
446,465
447,463
448,459
449,456
450,453
451,453
452,459
453,470
454,476
455,475
456,470
457,468
458,467
459,467
460,468
461,470
462,470
463,471
464,472
465,471
466,475
467,481
468,481
469,475
470,468
471,468
472,472
473,477
474,482
475,483
476,483
477,486
478,490
479,491
480,483
481,474
482,468
483,466
484,466
485,467
486,472
487,471
488,467
489,466
490,467
491,470
492,473
493,476
494,476
495,471
496,464
497,457
498,455
499,459
500,462
501,464
502,468
503,474
504,476
505,476
506,476
507,474
508,470
509,467
510,465
511,464
512,469
513,473
514,472
515,465
516,459
517,454
518,452
519,454
520,453
521,452
522,453
523,454
524,457
525,464
526,471
527,477
528,479
529,482
530,481
531,477
532,474
533,472
534,468
535,466
536,468
537,472
538,477
539,481
540,488
541,496
542,498
543,494
544,488
545,481
546,479
547,479
548,480
549,479
550,479
551,486
552,487
553,480
554,472
555,465
556,460
557,458
558,463
559,472
560,483
561,490
562,497
563,503
564,508
565,510
566,508
567,505
568,510
569,514
570,513
571,503
572,492
573,483
574,476
575,470
576,471
577,477
578,486
579,495
580,497
581,494
582,494
583,498
584,500
585,501
586,503
587,504
588,504
589,509
590,514
591,517
592,519
593,519
594,519
595,521
596,525
597,527
598,526
599,514
600,496
601,487
602,487
603,488
604,490
605,487
606,484
607,486
608,486
609,486
610,487
611,487
612,487
613,487
614,487
615,484
616,482
617,478
618,478
619,482
620,487
621,488
622,487
623,486
624,479
625,476
626,477
627,482
628,483
629,486
630,486
631,487
632,486
633,487
634,487
635,484
636,480
637,483
638,489
639,486
640,483
641,483
642,484
643,480
644,482
645,483
646,482
647,482
648,482
649,485
650,490
651,491
652,490
653,489
654,491
655,494
656,493
657,485
658,478
659,476
660,472
661,470
662,466
663,470
664,478
665,487
666,491
667,492
668,500
669,513
670,524
671,531
672,540
673,553
674,571
675,583
676,589
677,597
678,608
679,624
680,646
681,664
682,681
683,691
684,704
685,716
686,719
687,719
688,717
689,711
690,705
691,693
692,675
693,657
694,635
695,616
696,595
697,573
698,551
699,529
700,509
701,491
702,475
703,463
704,448
705,427
706,404
707,383
708,371
709,360
710,351
711,346
712,347
713,355
714,364
715,374
716,385
717,393
718,401
719,407
720,412
721,413
722,415
723,422
724,431
725,439
726,444
727,443
728,446
729,454
730,465
731,475
732,485
733,494
734,499
735,502
736,504
737,502
738,499
739,493
740,488
741,487
742,487
743,486
744,486
745,488
746,492
747,495
748,493
749,492
750,489
751,488
752,492
753,494
754,491
755,487
756,487
757,490
758,490
759,487
760,485
761,488
762,489
763,487
764,487
765,491
766,491
767,489
768,491
769,491
770,489
771,492
772,499
773,496
774,488
775,486
776,492
777,503
778,508
779,511
780,512
781,507
782,503
783,505
784,513
785,523
786,530
787,532
788,536
789,536
790,535
791,534
792,530
793,527
794,530
795,531
796,533
797,540
798,545
799,547
800,548
801,547
802,544
803,543
804,536
805,528
806,532
807,532
808,529
809,537
810,544
811,546
812,553
813,560
814,565
815,561
816,563
817,565
818,560
819,559
820,557
821,553
822,551
823,555
824,559
825,558
826,559
827,564
828,570
829,575
830,572
831,579
832,587
833,584
834,583
835,588
836,600
837,607
838,608
839,619
840,620
841,616
842,620
843,623
844,619
845,615
846,617
847,609
848,591
849,586
850,587
851,586
852,578
853,580
854,585
855,583
856,585
857,584
858,573
859,565
860,562
861,571
862,581
863,582
864,582
865,575
866,579
867,579
868,570
869,558
870,546
871,540
872,546
873,554
874,553
875,545
876,540
877,543
878,541
879,540
880,539
881,523
882,513
883,508
884,501
885,496
886,483
887,475
888,475
889,485
890,491
891,494
892,499
893,499
894,493
895,482
896,480
897,476
898,472
899,470
900,470
901,470
902,470
903,471
904,469
905,463
906,460
907,458
908,459
909,460
910,461
911,463
912,463
913,463
914,467
915,470
916,473
917,475
918,477
919,479
920,478
921,479
922,483
923,487
924,492
925,497
926,494
927,483
928,472
929,467
930,466
931,468
932,469
933,469
934,471
935,474
936,476
937,476
938,473
939,469
940,465
941,463
942,460
943,456
944,449
945,448
946,446
947,448
948,449
949,451
950,451
951,454
952,457
953,460
954,463
955,464
956,465
957,463
958,459
959,456
960,455
961,457
962,463
963,472
964,481
965,487
966,484
967,483
968,482
969,474
970,459
971,441
972,429
973,429
974,434
975,439
976,440
977,439
978,443
979,446
980,452
981,460
982,463
983,463
984,460
985,461
986,464
987,464
988,467
989,473
990,476
991,476
992,476
993,479
994,478
995,472
996,460
997,451
998,451
999,450
1000,449
1001,451
1002,453
1003,457
1004,460
1005,461
1006,463
1007,471
1008,477
1009,477
1010,474
1011,471
1012,467
1013,462
1014,459
1015,463
1016,468
1017,470
1018,475
1019,484
1020,497
1021,498
1022,486
1023,465
1024,467
1025,467
1026,466
1027,474
1028,484
1029,485
1030,480
1031,478
1032,481
1033,485
1034,487
1035,490
1036,492
1037,492
1038,488
1039,490
1040,496
1041,498
1042,491
1043,486
1044,484
1045,486
1046,481
1047,484
1048,490
1049,487
1050,498
1051,498
1052,498
1053,500
1054,498
1055,493
1056,490
1057,489
1058,486
1059,479
1060,481
1061,489
1062,496
1063,503
1064,514
1065,518
1066,517
1067,513
1068,509
1069,512
1070,520
1071,524
1072,524
1073,523
1074,513
1075,508
1076,507
1077,505
1078,505
1079,505
1080,499
1081,496
1082,500
1083,500
1084,497
1085,493
1086,489
1087,480
1088,473
1089,473
1090,473
1091,474
1092,474
1093,476
1094,479
1095,473
1096,469
1097,462
1098,460
1099,467
1100,472
1101,478
1102,478
1103,480
1104,481
1105,480
1106,478
1107,472
1108,467
1109,464
1110,464
1111,472
1112,488
1113,500
1114,502
1115,499
1116,498
1117,507
1118,511
1119,507
1120,500
1121,498
1122,499
1123,501
1124,504
1125,509
1126,511
1127,513
1128,511
1129,505
1130,491
1131,476
1132,470
1133,465
1134,458
1135,454
1136,448
1137,444
1138,447
1139,447
1140,443
1141,440
1142,441
1143,446
1144,451
1145,454
1146,456
1147,457
1148,463
1149,473
1150,486
1151,502
1152,521
1153,544
1154,568
1155,591
1156,614
1157,639
1158,668
1159,699
1160,724
1161,747
1162,767
1163,785
1164,799
1165,812
1166,828
1167,834
1168,826
1169,812
1170,794
1171,776
1172,755
1173,731
1174,702
1175,674
1176,650
1177,623
1178,597
1179,568
1180,535
1181,502
1182,473
1183,446
1184,414
1185,382
1186,353
1187,331
1188,316
1189,304
1190,294
1191,292
1192,297
1193,303
1194,308
1195,314
1196,321
1197,336
1198,355
1199,374
1200,389
1201,397
1202,403
1203,409
1204,416
1205,422
1206,427
1207,432
1208,436
1209,436
1210,437
1211,439
1212,440
1213,439
1214,439
1215,439
1216,443
1217,446
1218,451
1219,455
1220,461
1221,469
1222,470
1223,474
1224,484
1225,487
1226,484
1227,478
1228,475
1229,473
1230,476
1231,473
1232,467
1233,464
1234,463
1235,467
1236,466
1237,465
1238,465
1239,466
1240,472
1241,467
1242,459
1243,463
1244,468
1245,479
1246,489
1247,490
1248,496
1249,499
1250,493
1251,492
1252,491
1253,491
1254,492
1255,499
1256,510
1257,519
1258,524
1259,527
1260,525
1261,529
1262,528
1263,527
1264,529
1265,532
1266,534
1267,532
1268,535
1269,534
1270,530
1271,531
1272,536
1273,542
1274,543
1275,544
1276,550
1277,552
1278,552
1279,551
1280,547
1281,540
1282,533
1283,524
1284,520
1285,519
1286,525
1287,535
1288,545
1289,556
1290,565
1291,571
1292,572
1293,576
1294,583
1295,588
1296,591
1297,595
1298,595
1299,591
1300,588
1301,588
1302,592
1303,594
1304,593
1305,593
1306,593
1307,595
1308,601
1309,609
1310,609
1311,601
1312,599
1313,606
1314,611
1315,615
1316,620
1317,621
1318,626
1319,633
1320,637
1321,636
1322,630
1323,630
1324,631
1325,626
1326,616
1327,604
1328,597
1329,596
1330,600
1331,603
1332,607
1333,615
1334,620
1335,623
1336,626
1337,626
1338,622
1339,623
1340,625
1341,623
1342,615
1343,607
1344,603
1345,598
1346,595
1347,595
1348,597
1349,595
1350,592
1351,591
1352,586
1353,581
1354,576
1355,576
1356,576
1357,573
1358,568
1359,560
1360,551
1361,543
1362,534
1363,525
1364,518
1365,507
1366,491
1367,478
1368,470
1369,461
1370,454
1371,456
1372,463
1373,467
1374,470
1375,472
1376,469
1377,465
1378,465
1379,467
1380,472
1381,474
1382,471
1383,470
1384,464
1385,455
1386,455
1387,452
1388,446
1389,447
1390,449
1391,453
1392,448
1393,447
1394,444
1395,445
1396,441
1397,437
1398,440
1399,443
1400,448
1401,449
1402,452
1403,451
1404,440
1405,430
1406,429
1407,434
1408,435
1409,439
1410,446
1411,449
1412,453
1413,447
1414,445
1415,445
1416,444
1417,444
1418,444
1419,447
1420,445
1421,446
1422,446
1423,449
1424,450
1425,446
1426,438
1427,432
1428,432
1429,433
1430,435
1431,434
1432,433
1433,436
1434,438
1435,439
1436,438
1437,434
1438,433
1439,433
1440,430
1441,431
1442,436
1443,442
1444,442
1445,441
1446,437
1447,434
1448,432
1449,434
1450,439
1451,446
1452,452
1453,455
1454,456
1455,460
1456,466
1457,474
1458,480
1459,479
1460,468
1461,455
1462,448
1463,446
1464,444
1465,442
1466,438
1467,437
1468,439
1469,446
1470,449
1471,452
1472,455
1473,454
1474,450
1475,448
1476,449
1477,449
1478,444
1479,434
1480,427
1481,428
1482,435
1483,439
1484,440
1485,440
1486,438
1487,435
1488,437
1489,441
1490,447
1491,454
1492,459
1493,462
1494,465
1495,474
1496,484
1497,489
1498,486
1499,480
1500,479
1501,476
1502,472
1503,468
1504,463
1505,466
1506,469
1507,464
1508,457
1509,451
1510,443
1511,439
1512,449
1513,462
1514,472
1515,475
1516,478
1517,481
1518,477
1519,472
1520,469
1521,468
1522,470
1523,470
1524,469
1525,473
1526,484
1527,487
1528,486
1529,489
1530,487
1531,487
1532,488
1533,487
1534,484
1535,482
1536,483
1537,486
1538,484
1539,478
1540,473
1541,479
1542,484
1543,487
1544,489
1545,496
1546,506
1547,511
1548,514
1549,516
1550,521
1551,526
1552,524
1553,523
1554,524
1555,525
1556,527
1557,525
1558,521
1559,519
1560,508
1561,500
1562,500
1563,502
1564,499
1565,497
1566,494
1567,496
1568,501
1569,508
1570,515
1571,519
1572,514
1573,506
1574,499
1575,493
1576,489
1577,490
1578,488
1579,487
1580,488
1581,492
1582,497
1583,503
1584,506
1585,510
1586,518
1587,518
1588,522
1589,519
1590,506
1591,491
1592,478
1593,465
1594,461
1595,461
1596,461
1597,461
1598,462
1599,463
1600,466
1601,468
1602,476
1603,483
1604,485
1605,488
1606,496
1607,501
1608,502
1609,499
1610,496
1611,493
1612,490
1613,491
1614,490
1615,490
1616,489
1617,489
1618,489
1619,487
1620,484
1621,481
1622,476
1623,472
1624,473
1625,476
1626,483
1627,492
1628,497
1629,499
1630,501
1631,503
1632,498
1633,497
1634,499
1635,496
1636,497
1637,494
1638,485
1639,475
1640,469
1641,467
1642,465
1643,473
1644,478
1645,481
1646,481
1647,481
1648,493
1649,506
1650,510
1651,513
1652,516
1653,524
1654,537
1655,551
1656,568
1657,586
1658,607
1659,627
1660,645
1661,663
1662,679
1663,700
1664,721
1665,740
1666,755
1667,768
1668,778
1669,790
1670,795
1671,793
1672,783
1673,766
1674,749
1675,732
1676,710
1677,683
1678,655
1679,628
1680,603
1681,576
1682,547
1683,516
1684,486
1685,455
1686,420
1687,388
1688,363
1689,342
1690,328
1691,317
1692,311
1693,308
1694,308
1695,309
1696,312
1697,318
1698,327
1699,337
1700,348
1701,357
1702,367
1703,378
1704,390
1705,399
1706,411
1707,420
1708,422
1709,424
1710,430
1711,435
1712,437
1713,440
1714,449
1715,460
1716,465
1717,464
1718,465
1719,466
1720,462
1721,461
1722,466
1723,465
1724,465
1725,471
1726,480
1727,486
1728,490
1729,499
1730,505
1731,504
1732,499
1733,492
1734,487
1735,485
1736,483
1737,489
1738,495
1739,499
1740,497
1741,492
1742,487
1743,490
1744,499
1745,507
1746,512
1747,508
1748,501
1749,497
1750,496
1751,496
1752,497
1753,502
1754,509
1755,513
1756,513
1757,508
1758,501
1759,496
1760,494
1761,496
1762,497
1763,496
1764,496
1765,502
1766,511
1767,517
1768,516
1769,512
1770,510
1771,512
1772,517
1773,519
1774,519
1775,518
1776,516
1777,514
1778,524
1779,529
1780,534
1781,539
1782,540
1783,540
1784,538
1785,535
1786,530
1787,531
1788,536
1789,540
1790,549
1791,559
1792,570
1793,577
1794,574
1795,563
1796,559
1797,556
1798,556
1799,561
1800,560
1801,562
1802,568
1803,574
1804,577
1805,575
1806,572
1807,570
1808,569
1809,574
1810,581
1811,583
1812,584
1813,588
1814,591
1815,596
1816,600
1817,608
1818,614
1819,616
1820,619
1821,624
1822,623
1823,619
1824,621
1825,621
1826,622
1827,624
1828,630
1829,623
1830,611
1831,606
1832,605
1833,604
1834,593
1835,583
1836,580
1837,583
1838,587
1839,590
1840,590
1841,585
1842,581
1843,582
1844,585
1845,595
1846,605
1847,611
1848,608
1849,603
1850,593
1851,579
1852,569
1853,560
1854,554
1855,554
1856,551
1857,545
1858,539
1859,539
1860,538
1861,534
1862,529
1863,529
1864,527
1865,525
1866,520
1867,516
1868,510
1869,505
1870,499
1871,493
1872,492
1873,493
1874,493
1875,495
1876,493
1877,488
1878,481
1879,471
1880,462
1881,459
1882,461
1883,468
1884,474
1885,475
1886,480
1887,487
1888,493
1889,496
1890,492
1891,487
1892,480
1893,471
1894,465
1895,463
1896,457
1897,456
1898,460
1899,463
1900,468
1901,478
1902,487
1903,485
1904,475
1905,470
1906,466
1907,461
1908,455
1909,450
1910,441
1911,434
1912,429
1913,426
1914,427
1915,430
1916,440
1917,450
1918,454
1919,454
1920,451
1921,454
1922,460
1923,464
1924,463
1925,464
1926,468
1927,470
1928,467
1929,458
1930,451
1931,447
1932,441
1933,434
1934,426
1935,425
1936,432
1937,441
1938,449
1939,451
1940,451
1941,450
1942,451
1943,456
1944,463
1945,467
1946,465
1947,463
1948,466
1949,472
1950,472
1951,463
1952,449
1953,444
1954,443
1955,448
1956,456
1957,459
1958,459
1959,457
1960,452
1961,452
1962,452
1963,451
1964,451
1965,450
1966,451
1967,454
1968,455
1969,457
1970,464
1971,472
1972,473
1973,467
1974,458
1975,455
1976,452
1977,454
1978,462
1979,470
1980,472
1981,471
1982,475
1983,481
1984,492
1985,497
1986,496
1987,495
1988,492
1989,489
1990,486
1991,479
1992,472
1993,472
1994,471
1995,470
1996,472
1997,477
1998,480
1999,482
