timestamp,signal
0,468
1,467
2,464
3,460
4,462
5,466
6,468
7,465
8,468
9,470
10,464
11,467
12,477
13,485
14,487
15,490
16,494
17,494
18,494
19,495
20,497
21,497
22,495
23,496
24,494
25,487
26,483
27,481
28,478
29,472
30,469
31,470
32,471
33,474
34,480
35,482
36,491
37,500
38,502
39,501
40,500
41,499
42,493
43,494
44,499
45,508
46,510
47,508
48,509
49,510
50,517
51,524
52,524
53,520
54,512
55,507
56,505
57,504
58,501
59,496
60,488
61,487
62,491
63,496
64,499
65,505
66,515
67,519
68,517
69,518
70,511
71,506
72,501
73,500
74,496
75,494
76,493
77,492
78,492
79,494
80,493
81,489
82,489
83,484
84,479
85,471
86,469
87,477
88,486
89,494
90,497
91,496
92,492
93,491
94,490
95,487
96,484
97,485
98,486
99,491
100,494
101,492
102,490
103,489
104,495
105,502
106,507
107,509
108,508
109,504
110,499
111,497
112,495
113,494
114,491
115,488
116,484
117,480
118,477
119,476
120,477
121,479
122,483
123,483
124,479
125,476
126,474
127,474
128,476
129,480
130,488
131,497
132,506
133,508
134,508
135,512
136,515
137,519
138,515
139,503
140,498
141,490
142,481
143,479
144,479
145,481
146,481
147,481
148,479
149,479
150,476
151,475
152,475
153,480
154,491
155,502
156,514
157,532
158,551
159,567
160,585
161,603
162,616
163,622
164,625
165,628
166,632
167,637
168,647
169,659
170,663
171,662
172,656
173,646
174,639
175,629
176,622
177,613
178,590
179,568
180,553
181,536
182,521
183,511
184,498
185,481
186,467
187,456
188,441
189,427
190,414
191,408
192,406
193,404
194,399
195,394
196,397
197,405
198,411
199,413
200,411
201,410
202,417
203,423
204,422
205,425
206,431
207,437
208,449
209,459
210,461
211,460
212,458
213,461
214,462
215,462
216,466
217,470
218,476
219,483
220,487
221,487
222,487
223,488
224,487
225,491
226,491
227,492
228,497
229,504
230,506
231,508
232,513
233,511
234,502
235,492
236,481
237,476
238,479
239,481
240,481
241,482
242,484
243,484
244,476
245,478
246,487
247,496
248,500
249,506
250,512
251,516
252,519
253,528
254,542
255,547
256,547
257,543
258,538
259,536
260,533
261,531
262,528
263,524
264,525
265,530
266,535
267,537
268,542
269,540
270,532
271,525
272,520
273,508
274,497
275,493
276,497
277,513
278,525
279,536
280,549
281,558
282,558
283,560
284,557
285,552
286,551
287,542
288,529
289,523
290,523
291,525
292,526
293,531
294,534
295,534
296,535
297,539
298,541
299,543
300,544
301,545
302,543
303,542
304,543
305,543
306,546
307,547
308,545
309,546
310,556
311,571
312,582
313,588
314,590
315,590
316,578
317,570
318,569
319,575
320,585
321,591
322,589
323,585
324,591
325,590
326,583
327,582
328,580
329,579
330,580
331,584
332,583
333,581
334,587
335,589
336,594
337,597
338,596
339,594
340,591
341,590
342,592
343,588
344,580
345,573
346,568
347,563
348,558
349,559
350,559
351,560
352,559
353,559
354,561
355,564
356,567
357,567
358,563
359,560
360,560
361,556
362,546
363,536
364,524
365,516
366,514
367,510
368,503
369,499
370,498
371,491
372,487
373,483
374,482
375,484
376,490
377,495
378,494
379,492
380,488
381,487
382,482
383,478
384,471
385,465
386,464
387,465
388,472
389,474
390,467
391,463
392,457
393,450
394,444
395,443
396,447
397,445
398,443
399,441
400,440
401,441
402,443
403,446
404,455
405,457
406,459
407,466
408,467
409,465
410,467
411,468
412,468
413,477
414,484
415,487
416,484
417,478
418,465
419,455
420,451
421,452
422,459
423,465
424,467
425,467
426,469
427,470
428,470
429,469
430,470
431,472
432,472
433,473
434,469
435,465
436,462
437,467
438,468
439,470
440,467
441,465
442,467
443,475
444,480
445,482
446,480
447,475
448,469
449,463
450,460
451,461
452,464
453,468
454,475
455,486
456,492
457,496
458,497
459,490
460,472
461,456
462,448
463,449
464,462
465,473
466,474
467,477
468,478
469,480
470,480
471,475
472,467
473,463
474,455
475,454
476,457
477,462
478,464
479,468
480,475
481,481
482,486
483,489
484,489
485,488
486,484
487,481
488,477
489,472
490,471
491,472
492,472
493,467
494,463
495,461
496,464
497,468
498,468
499,467
500,464
501,462
502,465
503,470
504,482
505,491
506,485
507,482
508,483
509,484
510,487
511,494
512,489
513,480
514,475
515,474
516,476
517,476
518,477
519,483
520,486
521,487
522,488
523,489
524,491
525,495
526,504
527,511
528,515
529,513
530,504
531,489
532,475
533,467
534,470
535,484
536,497
537,499
538,494
539,487
540,487
541,492
542,496
543,499
544,500
545,502
546,507
547,508
548,508
549,508
550,505
551,506
552,506
553,506
554,508
555,506
556,505
557,506
558,511
559,516
560,515
561,512
562,514
563,519
564,524
565,518
566,512
567,508
568,505
569,500
570,490
571,479
572,471
573,471
574,475
575,480
576,488
577,496
578,499
579,499
580,500
581,500
582,500
583,504
584,510
585,516
586,516
587,515
588,512
589,514
590,518
591,519
592,515
593,504
594,492
595,481
596,476
597,480
598,486
599,487
600,488
601,497
602,507
603,514
604,515
605,504
606,493
607,484
608,480
609,480
610,479
611,475
612,474
613,482
614,490
615,494
616,496
617,494
618,496
619,496
620,494
621,491
622,495
623,501
624,502
625,499
626,498
627,501
628,505
629,504
630,504
631,504
632,504
633,503
634,503
635,500
636,494
637,498
638,500
639,498
640,492
641,486
642,483
643,483
644,484
645,490
646,496
647,504
648,510
649,521
650,531
651,537
652,542
653,553
654,566
655,575
656,587
657,596
658,607
659,622
660,634
661,645
662,655
663,660
664,660
665,656
666,649
667,642
668,629
669,616
670,601
671,588
672,581
673,582
674,584
675,577
676,565
677,553
678,540
679,525
680,504
681,485
682,467
683,451
684,435
685,421
686,411
687,405
688,399
689,393
690,389
691,388
692,395
693,406
694,413
695,417
696,421
697,424
698,424
699,429
700,436
701,438
702,435
703,437
704,445
705,453
706,460
707,465
708,470
709,471
710,470
711,472
712,477
713,484
714,488
715,489
716,490
717,495
718,499
719,499
720,499
721,495
722,495
723,491
724,486
725,483
726,482
727,484
728,492
729,497
730,499
731,499
732,499
733,498
734,501
735,503
736,501
737,504
738,510
739,515
740,519
741,515
742,509
743,507
744,509
745,512
746,519
747,521
748,518
749,517
750,522
751,525
752,524
753,521
754,522
755,520
756,519
757,516
758,517
759,518
760,515
761,513
762,513
763,515
764,519
765,525
766,529
767,531
768,526
769,519
770,517
771,518
772,526
773,533
774,537
775,539
776,544
777,544
778,543
779,543
780,541
781,545
782,551
783,551
784,543
785,535
786,531
787,529
788,530
789,535
790,536
791,537
792,534
793,530
794,532
795,540
796,549
797,557
798,563
799,568
800,572
801,572
802,575
803,581
804,584
805,583
806,585
807,587
808,586
809,585
810,581
811,587
812,589
813,585
814,585
815,583
816,582
817,585
818,592
819,593
820,596
821,599
822,602
823,605
824,606
825,607
826,609
827,607
828,605
829,599
830,590
831,584
832,586
833,585
834,584
835,583
836,578
837,576
838,581
839,591
840,596
841,595
842,592
843,589
844,585
845,582
846,577
847,570
848,564
849,558
850,550
851,551
852,549
853,544
854,536
855,526
856,519
857,517
858,515
859,516
860,517
861,518
862,513
863,510
864,506
865,501
866,499
867,499
868,500
869,496
870,491
871,486
872,484
873,483
874,474
875,466
876,463
877,462
878,463
879,468
880,472
881,475
882,473
883,470
884,469
885,468
886,468
887,472
888,473
889,470
890,466
891,459
892,451
893,448
894,454
895,462
896,466
897,467
898,466
899,466
900,472
901,476
902,476
903,476
904,477
905,478
906,481
907,484
908,482
909,482
910,487
911,484
912,483
913,483
914,480
915,472
916,463
917,459
918,457
919,465
920,475
921,478
922,476
923,473
924,473
925,471
926,466
927,463
928,458
929,455
930,456
931,459
932,460
933,462
934,462
935,461
936,464
937,471
938,475
939,480
940,484
941,489
942,490
943,488
944,487
945,488
946,493
947,493
948,486
949,478
950,471
951,468
952,467
953,468
954,468
955,468
956,470
957,475
958,475
959,473
960,473
961,479
962,485
963,491
964,493
965,491
966,492
967,494
968,495
969,489
970,482
971,479
972,480
973,487
974,495
975,494
976,489
977,485
978,486
979,488
980,495
981,495
982,492
983,488
984,483
985,483
986,483
987,486
988,485
989,479
990,467
991,461
992,461
993,464
994,470
995,478
996,482
997,485
998,488
999,491
1000,492
1001,492
1002,490
1003,489
1004,488
1005,487
1006,487
1007,487
1008,486
1009,488
1010,490
1011,492
1012,494
1013,496
1014,496
1015,492
1016,488
1017,483
1018,480
1019,478
1020,476
1021,480
1022,484
1023,490
1024,491
1025,495
1026,499
1027,502
1028,505
1029,509
1030,509
1031,501
1032,501
1033,504
1034,500
1035,496
1036,494
1037,491
1038,493
1039,495
1040,498
1041,507
1042,515
1043,523
1044,524
1045,520
1046,516
1047,511
1048,505
1049,499
1050,497
1051,496
1052,494
1053,489
1054,485
1055,485
1056,484
1057,481
1058,481
1059,481
1060,477
1061,477
1062,477
1063,480
1064,489
1065,494
1066,499
1067,504
1068,511
1069,515
1070,518
1071,518
1072,511
1073,503
1074,493
1075,490
1076,490
1077,490
1078,487
1079,487
1080,486
1081,484
1082,482
1083,480
1084,472
1085,469
1086,471
1087,474
1088,475
1089,477
1090,480
1091,488
1092,497
1093,495
1094,491
1095,487
1096,486
1097,486
1098,487
1099,492
1100,492
1101,486
1102,481
1103,480
1104,480
1105,483
1106,483
1107,484
1108,491
1109,496
1110,499
1111,499
1112,496
1113,490
1114,484
1115,485
1116,487
1117,487
1118,483
1119,483
1120,487
1121,488
1122,487
1123,489
1124,493
1125,497
1126,498
1127,499
1128,495
1129,489
1130,483
1131,482
1132,492
1133,505
1134,516
1135,521
1136,523
1137,529
1138,538
1139,545
1140,555
1141,573
1142,590
1143,605
1144,619
1145,633
1146,640
1147,640
1148,647
1149,655
1150,655
1151,649
1152,635
1153,620
1154,606
1155,596
1156,586
1157,576
1158,567
1159,557
1160,545
1161,533
1162,522
1163,506
1164,487
1165,468
1166,456
1167,446
1168,436
1169,430
1170,420
1171,411
1172,405
1173,396
1174,385
1175,385
1176,393
1177,401
1178,407
1179,407
1180,411
1181,419
1182,429
1183,436
1184,440
1185,447
1186,456
1187,463
1188,470
1189,474
1190,474
1191,477
1192,479
1193,483
1194,486
1195,489
1196,488
1197,487
1198,488
1199,494
1200,493
1201,490
1202,490
1203,491
1204,493
1205,491
1206,486
1207,480
1208,471
1209,470
1210,467
1211,464
1212,470
1213,478
1214,487
1215,492
1216,496
1217,496
1218,495
1219,498
1220,503
1221,508
1222,511
1223,512
1224,513
1225,515
1226,516
1227,518
1228,520
1229,527
1230,532
1231,532
1232,530
1233,527
1234,522
1235,514
1236,507
1237,503
1238,504
1239,504
1240,506
1241,511
1242,515
1243,518
1244,523
1245,528
1246,533
1247,539
1248,540
1249,541
1250,541
1251,539
1252,536
1253,531
1254,526
1255,522
1256,527
1257,536
1258,528
1259,513
1260,504
1261,501
1262,499
1263,502
1264,509
1265,518
1266,525
1267,534
1268,538
1269,541
1270,543
1271,543
1272,544
1273,546
1274,548
1275,549
1276,547
1277,546
1278,549
1279,552
1280,555
1281,560
1282,566
1283,572
1284,576
1285,575
1286,570
1287,563
1288,558
1289,556
1290,559
1291,564
1292,568
1293,570
1294,568
1295,565
1296,573
1297,583
1298,588
1299,596
1300,605
1301,608
1302,611
1303,613
1304,608
1305,603
1306,597
1307,588
1308,578
1309,575
1310,579
1311,588
1312,595
1313,598
1314,596
1315,591
1316,589
1317,591
1318,596
1319,597
1320,594
1321,591
1322,590
1323,590
1324,584
1325,583
1326,582
1327,580
1328,574
1329,565
1330,556
1331,551
1332,549
1333,545
1334,540
1335,535
1336,532
1337,529
1338,524
1339,517
1340,513
1341,513
1342,513
1343,517
1344,521
1345,520
1346,517
1347,515
1348,515
1349,510
1350,499
1351,487
1352,478
1353,473
1354,478
1355,489
1356,495
1357,498
1358,505
1359,508
1360,509
1361,504
1362,500
1363,500
1364,497
1365,492
1366,488
1367,489
1368,487
1369,481
1370,473
1371,467
1372,464
1373,457
1374,446
1375,440
1376,435
1377,435
1378,440
1379,447
1380,454
1381,460
1382,464
1383,471
1384,477
1385,473
1386,468
1387,465
1388,468
1389,470
1390,466
1391,463
1392,465
1393,467
1394,466
1395,470
1396,474
1397,477
1398,480
1399,480
1400,476
1401,475
1402,476
1403,475
1404,472
1405,474
1406,476
1407,474
1408,470
1409,464
1410,458
1411,456
1412,457
1413,458
1414,457
1415,460
1416,468
1417,473
1418,475
1419,477
1420,476
1421,470
1422,464
1423,461
1424,466
1425,474
1426,476
1427,476
1428,479
1429,486
1430,494
1431,501
1432,503
1433,499
1434,494
1435,490
1436,481
1437,473
1438,467
1439,465
1440,468
1441,472
1442,471
1443,465
1444,459
1445,457
1446,462
1447,463
1448,464
1449,470
1450,468
1451,464
1452,464
1453,467
1454,467
1455,466
1456,470
1457,473
1458,475
1459,478
1460,480
1461,482
1462,485
1463,486
1464,484
1465,484
1466,486
1467,489
1468,492
1469,493
1470,492
1471,487
1472,481
1473,480
1474,481
1475,483
1476,485
1477,491
1478,496
1479,498
1480,498
1481,495
1482,487
1483,479
1484,474
1485,476
1486,483
1487,491
1488,495
1489,496
1490,497
1491,494
1492,494
1493,488
1494,484
1495,483
1496,478
1497,473
1498,478
1499,483
1500,487
1501,494
1502,501
1503,504
1504,501
1505,500
1506,504
1507,507
1508,509
1509,510
1510,505
1511,499
1512,494
1513,492
1514,494
1515,500
1516,504
1517,505
1518,506
1519,504
1520,501
1521,499
1522,498
1523,499
1524,497
1525,492
1526,490
1527,494
1528,502
1529,510
1530,513
1531,515
1532,519
1533,526
1534,530
1535,529
1536,527
1537,524
1538,519
1539,512
1540,505
1541,500
1542,500
1543,507
1544,513
1545,516
1546,516
1547,511
1548,507
1549,501
1550,494
1551,486
1552,480
1553,480
1554,481
1555,480
1556,484
1557,489
1558,490
1559,487
1560,478
1561,469
1562,468
1563,467
1564,464
1565,464
1566,469
1567,472
1568,476
1569,487
1570,497
1571,503
1572,507
1573,506
1574,499
1575,494
1576,492
1577,490
1578,489
1579,491
1580,492
1581,493
1582,499
1583,505
1584,507
1585,507
1586,506
1587,506
1588,506
1589,506
1590,510
1591,509
1592,510
1593,513
1594,516
1595,514
1596,510
1597,509
1598,505
1599,499
1600,498
1601,501
1602,499
1603,497
1604,496
1605,494
1606,493
1607,496
1608,499
1609,499
1610,501
1611,505
1612,507
1613,503
1614,497
1615,494
1616,493
1617,489
1618,489
1619,500
1620,512
1621,523
1622,536
1623,548
1624,559
1625,566
1626,574
1627,583
1628,598
1629,614
1630,626
1631,633
1632,641
1633,643
1634,647
1635,650
1636,648
1637,645
1638,642
1639,637
1640,631
1641,621
1642,601
1643,578
1644,561
1645,550
1646,543
1647,539
1648,531
1649,524
1650,512
1651,501
1652,492
1653,476
1654,466
1655,459
1656,448
1657,431
1658,415
1659,400
1660,389
1661,383
1662,384
1663,390
1664,396
1665,401
1666,407
1667,412
1668,420
1669,431
1670,436
1671,441
1672,451
1673,462
1674,470
1675,477
1676,485
1677,492
1678,497
1679,496
1680,494
1681,494
1682,495
1683,496
1684,496
1685,493
1686,491
1687,489
1688,492
1689,493
1690,494
1691,495
1692,498
1693,507
1694,513
1695,516
1696,517
1697,515
1698,511
1699,505
1700,496
1701,489
1702,494
1703,500
1704,501
1705,502
1706,503
1707,504
1708,505
1709,507
1710,508
1711,507
1712,508
1713,512
1714,511
1715,511
1716,511
1717,511
1718,513
1719,517
1720,524
1721,526
1722,519
1723,512
1724,509
1725,506
1726,499
1727,497
1728,503
1729,510
1730,513
1731,517
1732,523
1733,526
1734,523
1735,519
1736,518
1737,521
1738,527
1739,530
1740,533
1741,536
1742,537
1743,534
1744,528
1745,523
1746,520
1747,521
1748,527
1749,539
1750,550
1751,558
1752,565
1753,568
1754,566
1755,562
1756,554
1757,541
1758,532
1759,529
1760,530
1761,536
1762,542
1763,542
1764,541
1765,542
1766,543
1767,544
1768,547
1769,550
1770,554
1771,555
1772,556
1773,558
1774,564
1775,565
1776,563
1777,561
1778,559
1779,559
1780,559
1781,560
1782,564
1783,569
1784,568
1785,571
1786,580
1787,590
1788,598
1789,598
1790,595
1791,592
1792,590
1793,590
1794,591
1795,594
1796,596
1797,597
1798,598
1799,600
1800,600
1801,600
1802,596
1803,593
1804,588
1805,583
1806,579
1807,577
1808,576
1809,577
1810,579
1811,580
1812,575
1813,567
1814,560
1815,552
1816,547
1817,551
1818,555
1819,559
1820,561
1821,561
1822,558
1823,549
1824,543
1825,534
1826,524
1827,522
1828,526
1829,530
1830,533
1831,534
1832,529
1833,524
1834,519
1835,513
1836,502
1837,494
1838,488
1839,489
1840,490
1841,484
1842,480
1843,481
1844,483
1845,484
1846,486
1847,488
1848,487
1849,483
1850,478
1851,474
1852,475
1853,475
1854,474
1855,476
1856,477
1857,473
1858,468
1859,465
1860,463
1861,460
1862,458
1863,460
1864,461
1865,464
1866,469
1867,473
1868,475
1869,471
1870,463
1871,456
1872,455
1873,455
1874,457
1875,462
1876,466
1877,464
1878,457
1879,452
1880,453
1881,459
1882,461
1883,462
1884,465
1885,471
1886,478
1887,484
1888,487
1889,490
1890,491
1891,495
1892,497
1893,500
1894,497
1895,488
1896,477
1897,472
1898,469
1899,472
1900,485
1901,497
1902,498
1903,489
1904,478
1905,469
1906,464
1907,461
1908,463
1909,465
1910,463
1911,463
1912,463
1913,468
1914,473
1915,471
1916,466
1917,460
1918,456
1919,454
1920,454
1921,460
1922,466
1923,465
1924,462
1925,460
1926,455
1927,452
1928,457
1929,462
1930,465
1931,471
1932,475
1933,477
1934,485
1935,494
1936,496
1937,491
1938,481
1939,470
1940,466
1941,467
1942,468
1943,468
1944,472
1945,481
1946,494
1947,496
1948,496
1949,496
1950,489
1951,480
1952,473
1953,469
1954,468
1955,467
1956,465
1957,463
1958,463
1959,465
1960,467
1961,465
1962,464
1963,463
1964,462
1965,463
1966,467
1967,470
1968,469
1969,471
1970,472
1971,473
1972,477
1973,480
1974,481
1975,482
1976,487
1977,492
1978,492
1979,487
1980,485
1981,483
1982,483
1983,482
1984,483
1985,483
1986,486
1987,495
1988,505
1989,509
1990,510
1991,509
1992,507
1993,506
1994,507
1995,507
1996,510
1997,512
1998,514
1999,515
