timestamp,signal
0,434
1,429
2,427
3,428
4,431
5,437
6,443
7,450
8,456
9,459
10,459
11,452
12,444
13,438
14,434
15,435
16,438
17,441
18,445
19,446
20,446
21,447
22,448
23,448
24,446
25,443
26,440
27,439
28,436
29,435
30,437
31,437
32,438
33,440
34,443
35,449
36,453
37,456
38,456
39,455
40,453
41,452
42,454
43,452
44,448
45,444
46,443
47,444
48,446
49,448
50,451
51,461
52,471
53,473
54,477
55,476
56,474
57,472
58,467
59,461
60,451
61,446
62,443
63,439
64,437
65,437
66,436
67,434
68,433
69,433
70,437
71,441
72,446
73,449
74,452
75,459
76,467
77,475
78,481
79,483
80,483
81,479
82,476
83,476
84,476
85,478
86,482
87,487
88,493
89,499
90,502
91,502
92,497
93,491
94,486
95,484
96,484
97,484
98,484
99,483
100,482
101,483
102,485
103,488
104,493
105,496
106,498
107,499
108,496
109,490
110,484
111,478
112,471
113,467
114,468
115,471
116,476
117,482
118,487
119,489
120,492
121,495
122,499
123,504
124,509
125,515
126,518
127,519
128,521
129,524
130,524
131,522
132,521
133,518
134,510
135,502
136,495
137,489
138,487
139,486
140,487
141,489
142,493
143,496
144,499
145,505
146,509
147,511
148,506
149,498
150,493
151,490
152,490
153,493
154,496
155,501
156,503
157,502
158,499
159,492
160,484
161,474
162,467
163,465
164,465
165,468
166,474
167,481
168,489
169,496
170,497
171,493
172,487
173,483
174,481
175,482
176,481
177,482
178,484
179,487
180,489
181,489
182,492
183,498
184,505
185,511
186,514
187,518
188,524
189,528
190,528
191,521
192,511
193,502
194,494
195,486
196,478
197,473
198,472
199,472
200,477
201,483
202,487
203,490
204,494
205,497
206,500
207,500
208,501
209,505
210,508
211,506
212,503
213,501
214,502
215,505
216,510
217,512
218,515
219,519
220,522
221,523
222,523
223,518
224,513
225,514
226,518
227,522
228,531
229,546
230,561
231,571
232,581
233,592
234,607
235,623
236,643
237,667
238,691
239,714
240,735
241,751
242,764
243,772
244,777
245,781
246,779
247,775
248,770
249,760
250,748
251,733
252,719
253,704
254,686
255,669
256,648
257,624
258,595
259,562
260,534
261,508
262,484
263,464
264,447
265,429
266,410
267,396
268,384
269,376
270,371
271,368
272,363
273,351
274,346
275,351
276,362
277,371
278,378
279,383
280,386
281,391
282,399
283,406
284,413
285,420
286,426
287,433
288,443
289,454
290,460
291,463
292,466
293,469
294,467
295,467
296,466
297,466
298,466
299,466
300,467
301,469
302,473
303,482
304,492
305,498
306,504
307,511
308,518
309,520
310,518
311,520
312,522
313,519
314,514
315,510
316,502
317,496
318,493
319,490
320,489
321,490
322,491
323,492
324,492
325,494
326,494
327,495
328,494
329,496
330,499
331,499
332,499
333,499
334,496
335,494
336,496
337,499
338,502
339,503
340,508
341,513
342,516
343,516
344,515
345,514
346,512
347,514
348,519
349,524
350,526
351,528
352,531
353,531
354,529
355,525
356,522
357,519
358,520
359,520
360,523
361,522
362,521
363,525
364,532
365,537
366,541
367,542
368,543
369,543
370,540
371,537
372,539
373,541
374,540
375,538
376,540
377,542
378,543
379,543
380,545
381,549
382,553
383,557
384,558
385,559
386,559
387,561
388,565
389,568
390,576
391,580
392,587
393,596
394,601
395,604
396,605
397,608
398,610
399,608
400,605
401,601
402,598
403,593
404,590
405,587
406,586
407,588
408,590
409,592
410,592
411,589
412,591
413,594
414,596
415,600
416,606
417,609
418,613
419,616
420,619
421,624
422,629
423,633
424,634
425,633
426,630
427,624
428,615
429,604
430,596
431,586
432,576
433,571
434,568
435,571
436,573
437,576
438,579
439,583
440,589
441,591
442,593
443,594
444,591
445,587
446,581
447,575
448,569
449,563
450,556
451,549
452,541
453,532
454,527
455,523
456,516
457,510
458,506
459,506
460,508
461,510
462,512
463,515
464,515
465,514
466,511
467,507
468,503
469,502
470,501
471,501
472,499
473,495
474,490
475,485
476,479
477,475
478,475
479,477
480,481
481,483
482,490
483,495
484,491
485,486
486,479
487,470
488,461
489,455
490,452
491,451
492,452
493,455
494,458
495,463
496,465
497,464
498,462
499,461
500,461
501,462
502,462
503,457
504,453
505,450
506,445
507,441
508,439
509,438
510,440
511,443
512,444
513,443
514,443
515,446
516,448
517,444
518,436
519,434
520,433
521,435
522,436
523,435
524,432
525,430
526,431
527,434
528,435
529,434
530,434
531,435
532,436
533,439
534,440
535,443
536,444
537,445
538,443
539,441
540,438
541,436
542,439
543,444
544,446
545,447
546,449
547,451
548,450
549,451
550,455
551,459
552,463
553,462
554,459
555,455
556,450
557,447
558,447
559,446
560,446
561,446
562,445
563,441
564,439
565,439
566,436
567,435
568,435
569,435
570,437
571,439
572,439
573,441
574,447
575,452
576,452
577,453
578,453
579,455
580,461
581,468
582,475
583,478
584,479
585,479
586,475
587,470
588,461
589,457
590,454
591,455
592,459
593,461
594,462
595,461
596,456
597,452
598,448
599,449
600,451
601,455
602,459
603,460
604,464
605,471
606,476
607,479
608,479
609,480
610,481
611,481
612,482
613,485
614,488
615,490
616,488
617,488
618,487
619,486
620,483
621,482
622,482
623,483
624,482
625,482
626,486
627,491
628,496
629,500
630,502
631,502
632,500
633,499
634,495
635,490
636,486
637,482
638,479
639,479
640,482
641,484
642,488
643,492
644,496
645,499
646,502
647,508
648,512
649,513
650,511
651,510
652,513
653,514
654,515
655,518
656,518
657,520
658,524
659,524
660,521
661,515
662,510
663,503
664,495
665,489
666,486
667,480
668,473
669,470
670,473
671,478
672,483
673,486
674,488
675,493
676,498
677,502
678,501
679,500
680,502
681,505
682,508
683,512
684,514
685,517
686,520
687,517
688,508
689,503
690,500
691,495
692,488
693,484
694,484
695,489
696,493
697,496
698,497
699,497
700,499
701,498
702,495
703,495
704,497
705,503
706,509
707,515
708,519
709,526
710,533
711,535
712,534
713,532
714,529
715,525
716,518
717,511
718,504
719,498
720,493
721,494
722,499
723,502
724,503
725,504
726,508
727,516
728,524
729,532
730,539
731,543
732,543
733,539
734,530
735,524
736,517
737,508
738,500
739,496
740,495
741,495
742,497
743,503
744,510
745,518
746,526
747,535
748,544
749,550
750,556
751,564
752,572
753,582
754,594
755,606
756,616
757,627
758,646
759,665
760,687
761,709
762,734
763,760
764,785
765,806
766,820
767,831
768,838
769,841
770,839
771,834
772,824
773,809
774,790
775,775
776,758
777,742
778,724
779,705
780,684
781,657
782,628
783,594
784,561
785,528
786,499
787,477
788,453
789,430
790,412
791,399
792,391
793,387
794,384
795,385
796,387
797,392
798,393
799,388
800,386
801,391
802,399
803,407
804,414
805,419
806,431
807,450
808,467
809,477
810,482
811,484
812,486
813,486
814,483
815,483
816,487
817,490
818,489
819,490
820,491
821,492
822,496
823,501
824,508
825,514
826,515
827,514
828,515
829,512
830,510
831,506
832,496
833,493
834,495
835,501
836,506
837,510
838,511
839,509
840,512
841,514
842,512
843,507
844,508
845,511
846,512
847,511
848,508
849,505
850,504
851,505
852,509
853,517
854,522
855,527
856,531
857,532
858,533
859,533
860,532
861,529
862,529
863,528
864,525
865,524
866,527
867,532
868,541
869,548
870,553
871,554
872,553
873,550
874,545
875,539
876,529
877,521
878,515
879,510
880,510
881,513
882,519
883,522
884,524
885,530
886,537
887,548
888,561
889,573
890,583
891,590
892,589
893,583
894,577
895,571
896,564
897,559
898,554
899,551
900,553
901,555
902,557
903,556
904,557
905,557
906,557
907,561
908,572
909,585
910,591
911,596
912,600
913,602
914,601
915,600
916,600
917,605
918,607
919,610
920,610
921,608
922,606
923,603
924,603
925,605
926,610
927,617
928,624
929,628
930,634
931,639
932,645
933,647
934,646
935,642
936,637
937,633
938,626
939,617
940,609
941,604
942,603
943,610
944,616
945,622
946,625
947,627
948,627
949,625
950,620
951,614
952,605
953,594
954,586
955,582
956,580
957,580
958,582
959,583
960,587
961,590
962,590
963,588
964,588
965,587
966,580
967,571
968,561
969,553
970,551
971,547
972,544
973,538
974,534
975,535
976,534
977,536
978,537
979,537
980,535
981,534
982,531
983,529
984,526
985,520
986,513
987,507
988,504
989,503
990,501
991,498
992,499
993,498
994,501
995,503
996,501
997,498
998,492
999,481
1000,464
1001,449
1002,443
1003,449
1004,459
1005,465
1006,470
1007,473
1008,476
1009,480
1010,483
1011,487
1012,491
1013,491
1014,486
1015,479
1016,472
1017,465
1018,456
1019,462
1020,473
1021,476
1022,481
1023,486
1024,486
1025,489
1026,490
1027,492
1028,493
1029,495
1030,500
1031,504
1032,506
1033,498
1034,486
1035,478
1036,473
1037,473
1038,474
1039,476
1040,476
1041,477
1042,477
1043,474
1044,469
1045,467
1046,464
1047,461
1048,459
1049,457
1050,456
1051,454
1052,457
1053,463
1054,470
1055,475
1056,474
1057,478
1058,485
1059,496
1060,509
1061,515
1062,513
1063,509
1064,502
1065,499
1066,493
1067,485
1068,483
1069,479
1070,480
1071,477
1072,473
1073,469
1074,469
1075,472
1076,480
1077,485
1078,491
1079,496
1080,497
1081,497
1082,497
1083,497
1084,494
1085,493
1086,494
1087,500
1088,505
1089,510
1090,515
1091,513
1092,513
1093,513
1094,515
1095,513
1096,509
1097,507
1098,499
1099,492
1100,487
1101,484
1102,482
1103,480
1104,479
1105,480
1106,481
1107,480
1108,479
1109,480
1110,479
1111,477
1112,478
1113,486
1114,497
1115,508
1116,518
1117,523
1118,529
1119,533
1120,536
1121,539
1122,536
1123,534
1124,533
1125,535
1126,538
1127,539
1128,540
1129,534
1130,524
1131,519
1132,514
1133,504
1134,502
1135,500
1136,492
1137,486
1138,481
1139,479
1140,479
1141,478
1142,482
1143,490
1144,496
1145,503
1146,510
1147,515
1148,521
1149,524
1150,528
1151,529
1152,524
1153,513
1154,502
1155,495
1156,489
1157,490
1158,496
1159,501
1160,510
1161,515
1162,518
1163,522
1164,528
1165,533
1166,535
1167,536
1168,534
1169,532
1170,531
1171,530
1172,536
1173,537
1174,531
1175,528
1176,530
1177,532
1178,531
1179,529
1180,533
1181,541
1182,547
1183,556
1184,563
1185,568
1186,568
1187,563
1188,555
1189,544
1190,534
1191,523
1192,514
1193,508
1194,504
1195,503
1196,505
1197,508
1198,509
1199,506
1200,499
1201,491
1202,486
1203,487
1204,489
1205,487
1206,487
1207,489
1208,494
1209,501
1210,507
1211,508
1212,513
1213,521
1214,529
1215,537
1216,539
1217,537
1218,530
1219,518
1220,504
1221,486
1222,472
1223,469
1224,472
1225,477
1226,478
1227,479
1228,483
1229,492
1230,498
1231,495
1232,487
1233,484
1234,484
1235,485
1236,483
1237,481
1238,483
1239,488
1240,494
1241,498
1242,502
1243,507
1244,510
1245,509
1246,502
1247,489
1248,478
1249,471
1250,465
1251,458
1252,452
1253,449
1254,448
1255,455
1256,461
1257,465
1258,469
1259,478
1260,496
1261,508
1262,512
1263,510
1264,507
1265,510
1266,509
1267,504
1268,495
1269,487
1270,484
1271,485
1272,490
1273,504
1274,521
1275,536
1276,554
1277,571
1278,583
1279,597
1280,614
1281,627
1282,641
1283,664
1284,685
1285,700
1286,708
1287,716
1288,724
1289,728
1290,726
1291,723
1292,716
1293,708
1294,695
1295,682
1296,665
1297,648
1298,626
1299,603
1300,580
1301,554
1302,526
1303,500
1304,476
1305,452
1306,435
1307,421
1308,406
1309,394
1310,390
1311,387
1312,380
1313,370
1314,357
1315,344
1316,339
1317,340
1318,346
1319,350
1320,352
1321,357
1322,364
1323,368
1324,377
1325,381
1326,391
1327,397
1328,403
1329,407
1330,412
1331,418
1332,423
1333,427
1334,429
1335,436
1336,444
1337,451
1338,457
1339,461
1340,467
1341,473
1342,480
1343,484
1344,485
1345,486
1346,488
1347,489
1348,489
1349,489
1350,487
1351,483
1352,484
1353,488
1354,492
1355,497
1356,499
1357,499
1358,498
1359,499
1360,499
1361,505
1362,511
1363,517
1364,521
1365,523
1366,523
1367,523
1368,522
1369,523
1370,524
1371,521
1372,515
1373,507
1374,500
1375,496
1376,494
1377,494
1378,499
1379,507
1380,507
1381,506
1382,509
1383,514
1384,519
1385,519
1386,515
1387,513
1388,517
1389,524
1390,531
1391,536
1392,542
1393,544
1394,546
1395,546
1396,542
1397,533
1398,524
1399,515
1400,510
1401,510
1402,513
1403,513
1404,513
1405,516
1406,516
1407,521
1408,525
1409,521
1410,523
1411,526
1412,533
1413,536
1414,536
1415,536
1416,534
1417,529
1418,529
1419,531
1420,532
1421,531
1422,536
1423,542
1424,543
1425,546
1426,549
1427,549
1428,551
1429,554
1430,560
1431,566
1432,574
1433,578
1434,579
1435,583
1436,587
1437,595
1438,595
1439,590
1440,583
1441,572
1442,564
1443,561
1444,565
1445,572
1446,577
1447,583
1448,586
1449,587
1450,587
1451,586
1452,588
1453,592
1454,596
1455,600
1456,602
1457,602
1458,602
1459,593
1460,583
1461,573
1462,574
1463,577
1464,583
1465,581
1466,571
1467,566
1468,561
1469,552
1470,542
1471,529
1472,515
1473,497
1474,488
1475,490
1476,498
1477,508
1478,512
1479,513
1480,510
1481,504
1482,490
1483,480
1484,480
1485,489
1486,499
1487,512
1488,528
1489,543
1490,555
1491,555
1492,546
1493,531
1494,518
1495,515
1496,513
1497,506
1498,499
1499,496
1500,489
1501,475
1502,460
1503,446
1504,435
1505,430
1506,433
1507,435
1508,445
1509,458
1510,468
1511,467
1512,457
1513,449
1514,444
1515,435
1516,428
1517,421
1518,413
1519,403
1520,396
1521,395
1522,409
1523,433
1524,447
1525,451
1526,448
1527,440
1528,431
1529,426
1530,421
1531,411
1532,402
1533,393
1534,379
1535,361
1536,344
1537,333
1538,332
1539,337
1540,338
1541,340
1542,348
1543,359
1544,367
1545,373
1546,374
1547,376
1548,379
1549,379
1550,388
1551,402
1552,412
1553,411
1554,405
1555,398
1556,390
1557,384
1558,369
1559,351
1560,337
1561,327
1562,318
1563,316
1564,310
1565,305
1566,306
1567,306
1568,312
1569,327
1570,344
1571,349
1572,347
1573,347
1574,354
1575,362
1576,370
1577,377
1578,384
1579,388
1580,391
1581,396
1582,403
1583,411
1584,413
1585,410
1586,401
1587,391
1588,384
1589,378
1590,371
1591,367
1592,375
1593,380
1594,380
1595,378
1596,377
1597,377
1598,373
1599,363
1600,359
1601,364
1602,369
1603,371
1604,367
1605,360
1606,358
1607,355
1608,358
1609,361
1610,365
1611,374
1612,384
1613,385
1614,380
1615,380
1616,385
1617,386
1618,387
1619,390
1620,386
1621,381
1622,378
1623,373
1624,373
1625,376
1626,378
1627,380
1628,379
1629,381
1630,384
1631,384
1632,382
1633,381
1634,381
1635,380
1636,379
1637,379
1638,382
1639,387
1640,390
1641,392
1642,397
1643,397
1644,399
1645,402
1646,409
1647,412
1648,415
1649,410
1650,402
1651,397
1652,396
1653,395
1654,387
1655,380
1656,373
1657,367
1658,363
1659,357
1660,355
1661,359
1662,368
1663,372
1664,377
1665,388
1666,398
1667,407
1668,413
1669,413
1670,417
1671,423
1672,429
1673,435
1674,439
1675,443
1676,441
1677,433
1678,425
1679,422
1680,415
1681,407
1682,403
1683,396
1684,394
1685,396
1686,403
1687,411
1688,415
1689,421
1690,426
1691,439
1692,453
1693,459
1694,460
1695,459
1696,451
1697,444
1698,436
1699,430
1700,428
1701,431
1702,436
1703,439
1704,446
1705,453
1706,455
1707,453
1708,451
1709,442
1710,436
1711,431
1712,428
1713,424
1714,416
1715,412
1716,403
1717,397
1718,394
1719,398
1720,403
1721,413
1722,428
1723,441
1724,450
1725,457
1726,463
1727,467
1728,467
1729,457
1730,449
1731,441
1732,433
1733,433
1734,432
1735,429
1736,433
1737,444
1738,455
1739,455
1740,454
1741,462
1742,470
1743,473
1744,473
1745,471
1746,463
1747,459
1748,460
1749,464
1750,468
1751,463
1752,456
1753,447
1754,441
1755,442
1756,435
1757,430
1758,436
1759,449
1760,466
1761,480
1762,488
1763,489
1764,487
1765,481
1766,473
1767,472
1768,470
1769,466
1770,459
1771,452
1772,447
1773,439
1774,434
1775,427
1776,415
1777,413
1778,425
1779,458
1780,499
1781,532
1782,549
1783,556
1784,554
1785,552
1786,547
1787,545
1788,553
1789,560
1790,573
1791,582
1792,584
1793,590
1794,593
1795,597
1796,604
1797,612
1798,627
1799,647
1800,660
1801,667
1802,667
1803,663
1804,655
1805,651
1806,648
1807,648
1808,652
1809,647
1810,634
1811,619
1812,604
1813,587
1814,567
1815,547
1816,532
1817,517
1818,498
1819,476
1820,459
1821,439
1822,409
1823,383
1824,371
1825,370
1826,376
1827,386
1828,390
1829,396
1830,401
1831,400
1832,398
1833,395
1834,398
1835,405
1836,416
1837,427
1838,433
1839,440
1840,445
1841,444
1842,441
1843,440
1844,440
1845,440
1846,447
1847,463
1848,481
1849,499
1850,516
1851,524
1852,514
1853,502
1854,486
1855,479
1856,476
1857,467
1858,464
1859,477
1860,497
1861,513
1862,536
1863,571
1864,592
1865,597
1866,590
1867,576
1868,567
1869,548
1870,524
1871,505
1872,489
1873,475
1874,459
1875,454
1876,452
1877,458
1878,466
1879,468
1880,483
1881,512
1882,533
1883,551
1884,563
1885,569
1886,573
1887,582
1888,591
1889,596
1890,596
1891,598
1892,600
1893,602
1894,602
1895,603
1896,604
1897,611
1898,618
1899,612
1900,596
1901,579
1902,564
1903,549
1904,530
1905,511
1906,500
1907,506
1908,524
1909,543
1910,561
1911,573
1912,582
1913,595
1914,600
1915,601
1916,596
1917,592
1918,595
1919,595
1920,597
1921,600
1922,607
1923,612
1924,611
1925,615
1926,625
1927,630
1928,630
1929,628
1930,626
1931,621
1932,606
1933,588
1934,564
1935,547
1936,547
1937,562
1938,576
1939,575
1940,553
1941,545
1942,570
1943,611
1944,647
1945,673
1946,692
1947,706
1948,717
1949,726
1950,726
1951,719
1952,711
1953,711
1954,711
1955,707
1956,696
1957,686
1958,688
1959,711
1960,743
1961,767
1962,774
1963,776
1964,773
1965,760
1966,749
1967,740
1968,735
1969,732
1970,732
1971,728
1972,728
1973,727
1974,728
1975,740
1976,745
1977,745
1978,742
1979,736
1980,734
1981,731
1982,727
1983,721
1984,715
1985,713
1986,712
1987,707
1988,688
1989,669
1990,663
1991,656
1992,660
1993,673
1994,681
1995,680
1996,678
1997,678
1998,673
1999,664
