timestamp,signal
0,527
1,530
2,537
3,541
4,542
5,540
6,542
7,538
8,536
9,537
10,537
11,533
12,532
13,535
14,545
15,555
16,565
17,574
18,579
19,582
20,582
21,582
22,582
23,582
24,579
25,573
26,569
27,571
28,570
29,574
30,583
31,595
32,604
33,608
34,606
35,608
36,611
37,613
38,615
39,611
40,606
41,603
42,599
43,591
44,590
45,592
46,598
47,602
48,604
49,603
50,603
51,608
52,609
53,606
54,605
55,610
56,614
57,614
58,617
59,616
60,613
61,610
62,604
63,599
64,598
65,598
66,597
67,595
68,595
69,592
70,582
71,572
72,566
73,559
74,553
75,550
76,551
77,548
78,542
79,534
80,527
81,521
82,519
83,518
84,521
85,522
86,519
87,515
88,511
89,509
90,510
91,510
92,509
93,508
94,507
95,505
96,500
97,497
98,496
99,494
100,487
101,480
102,480
103,481
104,481
105,475
106,468
107,463
108,463
109,466
110,471
111,473
112,472
113,467
114,462
115,455
116,450
117,449
118,452
119,457
120,462
121,462
122,468
123,471
124,470
125,468
126,465
127,460
128,457
129,458
130,458
131,451
132,444
133,442
134,441
135,445
136,455
137,464
138,468
139,465
140,460
141,455
142,455
143,455
144,458
145,465
146,470
147,473
148,476
149,472
150,467
151,468
152,468
153,465
154,458
155,454
156,452
157,452
158,451
159,452
160,455
161,455
162,455
163,455
164,453
165,450
166,449
167,449
168,449
169,449
170,452
171,455
172,462
173,463
174,460
175,458
176,459
177,459
178,458
179,457
180,451
181,451
182,455
183,457
184,461
185,467
186,469
187,471
188,468
189,459
190,454
191,450
192,447
193,442
194,440
195,441
196,444
197,445
198,451
199,466
200,479
201,488
202,495
203,501
204,504
205,501
206,496
207,483
208,476
209,467
210,462
211,460
212,457
213,458
214,457
215,455
216,455
217,454
218,451
219,447
220,449
221,455
222,457
223,460
224,463
225,464
226,467
227,471
228,477
229,479
230,479
231,480
232,484
233,485
234,485
235,483
236,483
237,486
238,487
239,488
240,488
241,486
242,483
243,481
244,482
245,487
246,489
247,488
248,488
249,488
250,490
251,492
252,492
253,487
254,486
255,484
256,481
257,477
258,475
259,475
260,480
261,486
262,491
263,497
264,496
265,494
266,494
267,493
268,491
269,491
270,493
271,495
272,499
273,503
274,503
275,499
276,494
277,490
278,487
279,489
280,495
281,499
282,504
283,511
284,519
285,528
286,531
287,531
288,529
289,524
290,515
291,510
292,509
293,511
294,508
295,505
296,507
297,511
298,513
299,507
300,504
301,501
302,499
303,496
304,493
305,492
306,489
307,490
308,492
309,498
310,501
311,502
312,508
313,513
314,518
315,521
316,522
317,523
318,522
319,517
320,512
321,506
322,507
323,514
324,519
325,516
326,511
327,508
328,506
329,504
330,502
331,504
332,507
333,509
334,509
335,508
336,507
337,504
338,494
339,486
340,479
341,476
342,481
343,487
344,493
345,495
346,497
347,500
348,499
349,498
350,502
351,508
352,511
353,512
354,510
355,509
356,505
357,501
358,499
359,499
360,499
361,496
362,489
363,483
364,479
365,479
366,483
367,492
368,499
369,499
370,500
371,502
372,504
373,508
374,516
375,519
376,517
377,515
378,516
379,519
380,518
381,512
382,506
383,502
384,497
385,493
386,487
387,482
388,486
389,489
390,488
391,487
392,487
393,492
394,499
395,499
396,504
397,512
398,520
399,525
400,538
401,554
402,568
403,578
404,591
405,608
406,625
407,642
408,656
409,670
410,685
411,698
412,707
413,711
414,701
415,688
416,675
417,666
418,659
419,652
420,639
421,623
422,607
423,591
424,574
425,561
426,550
427,533
428,515
429,494
430,473
431,454
432,438
433,420
434,401
435,387
436,376
437,365
438,358
439,355
440,359
441,365
442,374
443,383
444,390
445,396
446,403
447,408
448,412
449,415
450,422
451,432
452,440
453,448
454,451
455,452
456,452
457,451
458,453
459,455
460,469
461,482
462,487
463,489
464,488
465,489
466,493
467,497
468,498
469,498
470,496
471,496
472,501
473,505
474,505
475,499
476,492
477,482
478,478
479,481
480,489
481,494
482,494
483,497
484,501
485,508
486,510
487,508
488,510
489,508
490,511
491,517
492,524
493,524
494,523
495,524
496,526
497,528
498,529
499,535
500,535
501,534
502,534
503,531
504,524
505,521
506,517
507,521
508,528
509,534
510,535
511,532
512,527
513,525
514,525
515,529
516,530
517,533
518,532
519,527
520,524
521,523
522,527
523,531
524,533
525,530
526,528
527,529
528,531
529,531
530,535
531,543
532,550
533,557
534,554
535,550
536,549
537,551
538,550
539,548
540,545
541,540
542,547
543,556
544,560
545,561
546,564
547,567
548,567
549,565
550,566
551,565
552,563
553,561
554,561
555,564
556,567
557,569
558,575
559,582
560,584
561,583
562,586
563,583
564,580
565,582
566,582
567,581
568,586
569,595
570,606
571,615
572,618
573,618
574,617
575,615
576,616
577,619
578,617
579,613
580,607
581,598
582,595
583,595
584,595
585,597
586,600
587,601
588,605
589,611
590,613
591,612
592,617
593,620
594,617
595,614
596,611
597,612
598,612
599,606
600,599
601,591
602,581
603,575
604,566
605,564
606,562
607,558
608,555
609,557
610,558
611,554
612,555
613,558
614,560
615,558
616,552
617,543
618,538
619,536
620,534
621,530
622,530
623,525
624,518
625,510
626,503
627,497
628,493
629,491
630,490
631,489
632,491
633,494
634,492
635,491
636,491
637,491
638,490
639,488
640,489
641,489
642,486
643,481
644,475
645,460
646,447
647,440
648,439
649,442
650,444
651,443
652,442
653,441
654,441
655,440
656,444
657,444
658,445
659,445
660,447
661,443
662,435
663,431
664,431
665,429
666,430
667,437
668,445
669,451
670,457
671,456
672,454
673,456
674,463
675,463
676,462
677,464
678,465
679,470
680,471
681,472
682,470
683,467
684,466
685,463
686,456
687,455
688,456
689,457
690,459
691,463
692,468
693,468
694,467
695,468
696,466
697,467
698,466
699,463
700,462
701,463
702,461
703,462
704,464
705,465
706,466
707,469
708,468
709,469
710,471
711,469
712,472
713,473
714,472
715,476
716,476
717,468
718,462
719,459
720,455
721,450
722,447
723,448
724,451
725,453
726,451
727,450
728,451
729,451
730,454
731,456
732,451
733,442
734,437
735,443
736,451
737,456
738,464
739,468
740,466
741,464
742,463
743,465
744,470
745,473
746,473
747,473
748,466
749,459
750,456
751,452
752,453
753,453
754,450
755,452
756,454
757,452
758,454
759,461
760,466
761,467
762,466
763,470
764,473
765,480
766,482
767,482
768,482
769,486
770,489
771,488
772,487
773,486
774,481
775,480
776,478
777,479
778,479
779,480
780,481
781,485
782,488
783,487
784,484
785,482
786,478
787,472
788,469
789,470
790,473
791,476
792,481
793,489
794,494
795,496
796,496
797,495
798,493
799,491
800,490
801,488
802,490
803,493
804,498
805,503
806,500
807,499
808,500
809,502
810,511
811,515
812,514
813,509
814,504
815,505
816,504
817,506
818,507
819,506
820,505
821,509
822,505
823,498
824,492
825,487
826,480
827,475
828,473
829,473
830,472
831,471
832,478
833,485
834,486
835,485
836,482
837,481
838,480
839,481
840,487
841,492
842,494
843,494
844,495
845,496
846,493
847,490
848,490
849,492
850,493
851,494
852,496
853,498
854,496
855,496
856,494
857,487
858,486
859,490
860,493
861,491
862,486
863,490
864,497
865,497
866,489
867,488
868,492
869,493
870,489
871,486
872,483
873,484
874,485
875,488
876,491
877,495
878,496
879,496
880,496
881,500
882,499
883,497
884,496
885,491
886,486
887,487
888,489
889,492
890,499
891,497
892,496
893,502
894,508
895,513
896,513
897,509
898,505
899,499
900,495
901,488
902,486
903,484
904,480
905,478
906,474
907,475
908,478
909,481
910,488
911,494
912,496
913,495
914,496
915,496
916,502
917,512
918,519
919,527
920,543
921,559
922,569
923,582
924,596
925,610
926,623
927,630
928,636
929,643
930,646
931,652
932,656
933,651
934,646
935,646
936,641
937,635
938,627
939,620
940,610
941,606
942,593
943,578
944,565
945,554
946,540
947,523
948,507
949,492
950,478
951,456
952,441
953,425
954,409
955,403
956,400
957,397
958,399
959,397
960,397
961,396
962,396
963,401
964,406
965,408
966,408
967,409
968,409
969,411
970,411
971,417
972,428
973,431
974,435
975,444
976,447
977,448
978,456
979,469
980,480
981,492
982,501
983,503
984,499
985,500
986,503
987,500
988,491
989,489
990,491
991,495
992,493
993,488
994,484
995,487
996,490
997,491
998,491
999,491
1000,491
1001,492
1002,497
1003,499
1004,498
1005,500
1006,505
1007,508
1008,509
1009,509
1010,509
1011,512
1012,512
1013,510
1014,508
1015,510
1016,510
1017,509
1018,510
1019,514
1020,514
1021,512
1022,512
1023,510
1024,513
1025,513
1026,514
1027,516
1028,519
1029,517
1030,514
1031,510
1032,508
1033,507
1034,507
1035,515
1036,524
1037,525
1038,525
1039,526
1040,527
1041,524
1042,522
1043,519
1044,517
1045,518
1046,523
1047,525
1048,524
1049,523
1050,519
1051,521
1052,527
1053,532
1054,535
1055,536
1056,538
1057,543
1058,550
1059,556
1060,555
1061,551
1062,547
1063,545
1064,545
1065,549
1066,548
1067,545
1068,542
1069,543
1070,548
1071,554
1072,559
1073,559
1074,562
1075,566
1076,569
1077,572
1078,572
1079,574
1080,577
1081,582
1082,589
1083,593
1084,598
1085,597
1086,595
1087,598
1088,600
1089,596
1090,591
1091,589
1092,594
1093,599
1094,601
1095,601
1096,599
1097,598
1098,598
1099,598
1100,600
1101,604
1102,610
1103,611
1104,608
1105,604
1106,594
1107,592
1108,596
1109,593
1110,589
1111,584
1112,581
1113,582
1114,581
1115,582
1116,582
1117,577
1118,571
1119,560
1120,553
1121,549
1122,544
1123,537
1124,539
1125,543
1126,550
1127,556
1128,556
1129,559
1130,557
1131,556
1132,555
1133,551
1134,544
1135,538
1136,532
1137,529
1138,526
1139,523
1140,518
1141,506
1142,500
1143,494
1144,494
1145,493
1146,487
1147,483
1148,481
1149,485
1150,487
1151,485
1152,483
1153,479
1154,472
1155,469
1156,470
1157,471
1158,473
1159,472
1160,469
1161,465
1162,458
1163,457
1164,456
1165,460
1166,459
1167,459
1168,461
1169,461
1170,463
1171,465
1172,464
1173,457
1174,444
1175,432
1176,430
1177,430
1178,430
1179,432
1180,437
1181,445
1182,447
1183,446
1184,446
1185,443
1186,438
1187,431
1188,425
1189,421
1190,422
1191,427
1192,433
1193,442
1194,451
1195,456
1196,461
1197,463
1198,464
1199,467
1200,472
1201,479
1202,478
1203,474
1204,472
1205,470
1206,471
1207,470
1208,471
1209,472
1210,473
1211,471
1212,464
1213,465
1214,469
1215,474
1216,475
1217,474
1218,472
1219,468
1220,464
1221,460
1222,458
1223,454
1224,456
1225,459
1226,464
1227,462
1228,458
1229,457
1230,460
1231,462
1232,462
1233,462
1234,464
1235,470
1236,472
1237,472
1238,472
1239,475
1240,476
1241,474
1242,473
1243,472
1244,469
1245,470
1246,470
1247,467
1248,462
1249,462
1250,467
1251,475
1252,478
1253,477
1254,477
1255,481
1256,482
1257,475
1258,471
1259,465
1260,461
1261,460
1262,462
1263,463
1264,465
1265,468
1266,472
1267,472
1268,468
1269,466
1270,465
1271,463
1272,464
1273,471
1274,477
1275,476
1276,474
1277,476
1278,479
1279,478
1280,471
1281,462
1282,460
1283,465
1284,468
1285,471
1286,473
1287,476
1288,482
1289,489
1290,495
1291,493
1292,493
1293,495
1294,495
1295,492
1296,492
1297,495
1298,495
1299,493
1300,491
1301,491
1302,491
1303,488
1304,481
1305,472
1306,464
1307,466
1308,471
1309,479
1310,487
1311,494
1312,498
1313,498
1314,496
1315,494
1316,496
1317,498
1318,498
1319,493
1320,491
1321,491
1322,492
1323,494
1324,495
1325,502
1326,504
1327,499
1328,496
1329,504
1330,511
1331,512
1332,512
1333,508
1334,505
1335,506
1336,503
1337,504
1338,502
1339,502
1340,501
1341,501
1342,500
1343,496
1344,491
1345,489
1346,489
1347,492
1348,494
1349,492
1350,492
1351,490
1352,489
1353,491
1354,495
1355,498
1356,494
1357,489
1358,486
1359,483
1360,483
1361,485
1362,484
1363,481
1364,477
1365,471
1366,468
1367,472
1368,473
1369,473
1370,475
1371,481
1372,488
1373,492
1374,493
1375,498
1376,497
1377,497
1378,498
1379,495
1380,487
1381,476
1382,472
1383,476
1384,479
1385,485
1386,495
1387,500
1388,503
1389,503
1390,500
1391,498
1392,494
1393,492
1394,489
1395,491
1396,491
1397,489
1398,490
1399,492
1400,500
1401,505
1402,503
1403,501
1404,500
1405,497
1406,490
1407,484
1408,478
1409,478
1410,480
1411,481
1412,483
1413,488
1414,493
1415,498
1416,501
1417,502
1418,502
1419,499
1420,495
1421,495
1422,494
1423,492
1424,489
1425,488
1426,493
1427,501
1428,506
1429,513
1430,520
1431,528
1432,538
1433,547
1434,556
1435,567
1436,580
1437,594
1438,608
1439,618
1440,626
1441,636
1442,648
1443,655
1444,660
1445,660
1446,659
1447,653
1448,646
1449,644
1450,641
1451,634
1452,623
1453,611
1454,601
1455,590
1456,577
1457,563
1458,548
1459,536
1460,525
1461,510
1462,492
1463,472
1464,448
1465,428
1466,413
1467,405
1468,402
1469,398
1470,393
1471,391
1472,391
1473,390
1474,391
1475,393
1476,393
1477,394
1478,398
1479,405
1480,410
1481,416
1482,423
1483,431
1484,435
1485,440
1486,444
1487,446
1488,451
1489,459
1490,464
1491,466
1492,468
1493,470
1494,471
1495,474
1496,474
1497,475
1498,484
1499,497
1500,502
1501,501
1502,499
1503,497
1504,499
1505,499
1506,499
1507,499
1508,501
1509,502
1510,502
1511,500
1512,500
1513,502
1514,504
1515,506
1516,510
1517,511
1518,508
1519,505
1520,504
1521,505
1522,507
1523,512
1524,518
1525,516
1526,510
1527,503
1528,498
1529,499
1530,499
1531,500
1532,501
1533,501
1534,499
1535,496
1536,496
1537,496
1538,499
1539,505
1540,513
1541,518
1542,519
1543,520
1544,523
1545,529
1546,535
1547,535
1548,534
1549,530
1550,527
1551,525
1552,528
1553,532
1554,531
1555,531
1556,528
1557,526
1558,529
1559,529
1560,532
1561,533
1562,533
1563,536
1564,540
1565,541
1566,541
1567,537
1568,537
1569,538
1570,537
1571,535
1572,534
1573,537
1574,543
1575,547
1576,549
1577,551
1578,555
1579,556
1580,555
1581,555
1582,558
1583,561
1584,563
1585,563
1586,563
1587,562
1588,566
1589,566
1590,567
1591,569
1592,571
1593,568
1594,564
1595,564
1596,563
1597,565
1598,568
1599,572
1600,582
1601,591
1602,599
1603,603
1604,608
1605,614
1606,621
1607,624
1608,620
1609,613
1610,613
1611,617
1612,617
1613,612
1614,606
1615,603
1616,604
1617,606
1618,606
1619,606
1620,604
1621,599
1622,594
1623,586
1624,577
1625,572
1626,568
1627,563
1628,561
1629,564
1630,568
1631,570
1632,568
1633,568
1634,566
1635,566
1636,563
1637,563
1638,558
1639,549
1640,543
1641,542
1642,544
1643,544
1644,541
1645,536
1646,531
1647,526
1648,523
1649,521
1650,520
1651,520
1652,518
1653,513
1654,509
1655,508
1656,508
1657,509
1658,512
1659,510
1660,499
1661,493
1662,492
1663,494
1664,495
1665,492
1666,488
1667,488
1668,491
1669,490
1670,483
1671,475
1672,472
1673,471
1674,464
1675,454
1676,448
1677,448
1678,447
1679,444
1680,449
1681,454
1682,454
1683,453
1684,454
1685,455
1686,457
1687,459
1688,460
1689,458
1690,456
1691,455
1692,456
1693,460
1694,460
1695,463
1696,467
1697,472
1698,473
1699,473
1700,472
1701,463
1702,457
1703,457
1704,455
1705,451
1706,449
1707,450
1708,453
1709,458
1710,461
1711,461
1712,463
1713,464
1714,463
1715,460
1716,463
1717,466
1718,469
1719,467
1720,469
1721,476
1722,482
1723,486
1724,492
1725,490
1726,481
1727,476
1728,475
1729,471
1730,470
1731,467
1732,458
1733,454
1734,455
1735,452
1736,448
1737,448
1738,454
1739,455
1740,457
1741,459
1742,462
1743,467
1744,472
1745,473
1746,470
1747,467
1748,471
1749,471
1750,469
1751,465
1752,468
1753,475
1754,476
1755,473
1756,474
1757,475
1758,475
1759,478
1760,478
1761,476
1762,478
1763,481
1764,483
1765,484
1766,487
1767,492
1768,495
1769,497
1770,494
1771,488
1772,481
1773,472
1774,464
1775,460
1776,463
1777,467
1778,468
1779,470
1780,472
1781,473
1782,476
1783,479
1784,477
1785,476
1786,475
1787,478
1788,481
1789,483
1790,484
1791,485
1792,484
1793,484
1794,482
1795,476
1796,466
1797,459
1798,459
1799,461
1800,461
1801,463
1802,468
1803,475
1804,486
1805,493
1806,491
1807,487
1808,480
1809,478
1810,475
1811,477
1812,484
1813,488
1814,492
1815,493
1816,497
1817,501
1818,499
1819,504
1820,508
1821,509
1822,504
1823,499
1824,498
1825,496
1826,491
1827,489
1828,486
1829,481
1830,477
1831,478
1832,481
1833,490
1834,495
1835,498
1836,501
1837,503
1838,506
1839,509
1840,513
1841,519
1842,522
1843,519
1844,515
1845,512
1846,512
1847,515
1848,517
1849,515
1850,511
1851,505
1852,499
1853,494
1854,491
1855,487
1856,483
1857,481
1858,481
1859,487
1860,491
1861,495
1862,501
1863,503
1864,502
1865,503
1866,501
1867,498
1868,497
1869,499
1870,501
1871,503
1872,502
1873,499
1874,497
1875,496
1876,498
1877,497
1878,497
1879,496
1880,495
1881,493
1882,495
1883,495
1884,493
1885,494
1886,494
1887,494
1888,494
1889,491
1890,488
1891,485
1892,487
1893,492
1894,493
1895,494
1896,496
1897,497
1898,497
1899,496
1900,497
1901,498
1902,501
1903,502
1904,503
1905,504
1906,504
1907,507
1908,505
1909,501
1910,496
1911,488
1912,482
1913,477
1914,475
1915,479
1916,491
1917,501
1918,504
1919,505
1920,504
1921,500
1922,503
1923,508
1924,507
1925,500
1926,495
1927,492
1928,494
1929,496
1930,496
1931,491
1932,483
1933,476
1934,472
1935,472
1936,476
1937,480
1938,487
1939,490
1940,491
1941,500
1942,513
1943,525
1944,536
1945,548
1946,560
1947,570
1948,578
1949,587
1950,600
1951,612
1952,623
1953,633
1954,649
1955,669
1956,686
1957,696
1958,697
1959,694
1960,687
1961,684
1962,681
1963,679
1964,675
1965,663
1966,643
1967,629
1968,619
1969,608
1970,598
1971,587
1972,576
1973,565
1974,546
1975,524
1976,497
1977,472
1978,453
1979,437
1980,419
1981,405
1982,396
1983,391
1984,393
1985,402
1986,405
1987,403
1988,399
1989,396
1990,398
1991,400
1992,407
1993,419
1994,432
1995,443
1996,448
1997,454
1998,456
1999,457
