timestamp,signal
0,477
1,480
2,492
3,506
4,504
5,498
6,493
7,491
8,504
9,508
10,507
11,505
12,507
13,521
14,535
15,548
16,555
17,555
18,558
19,556
20,563
21,569
22,556
23,527
24,509
25,503
26,503
27,499
28,497
29,486
30,475
31,480
32,484
33,494
34,513
35,517
36,523
37,509
38,486
39,481
40,484
41,495
42,514
43,523
44,520
45,512
46,519
47,527
48,532
49,538
50,544
51,538
52,544
53,541
54,523
55,514
56,501
57,486
58,466
59,475
60,482
61,485
62,494
63,495
64,489
65,485
66,495
67,511
68,495
69,497
70,509
71,514
72,495
73,487
74,488
75,489
76,504
77,524
78,531
79,530
80,526
81,522
82,527
83,506
84,503
85,508
86,510
87,510
88,504
89,499
90,497
91,499
92,494
93,486
94,481
95,481
96,490
97,500
98,507
99,501
100,496
101,496
102,489
103,487
104,473
105,471
106,479
107,478
108,479
109,487
110,497
111,516
112,517
113,517
114,516
115,520
116,521
117,514
118,503
119,497
120,488
121,489
122,500
123,515
124,525
125,531
126,537
127,529
128,523
129,527
130,536
131,527
132,519
133,506
134,492
135,494
136,505
137,523
138,533
139,516
140,493
141,480
142,470
143,464
144,462
145,464
146,472
147,491
148,508
149,517
150,528
151,550
152,565
153,586
154,600
155,606
156,592
157,562
158,547
159,543
160,540
161,523
162,511
163,508
164,510
165,521
166,535
167,536
168,539
169,526
170,505
171,488
172,483
173,500
174,510
175,503
176,498
177,488
178,493
179,504
180,508
181,508
182,503
183,498
184,492
185,507
186,526
187,534
188,534
189,522
190,510
191,491
192,475
193,461
194,449
195,455
196,476
197,487
198,468
199,435
200,432
201,446
202,456
203,465
204,467
205,475
206,488
207,492
208,499
209,488
210,480
211,488
212,502
213,516
214,533
215,528
216,534
217,555
218,569
219,568
220,569
221,569
222,559
223,547
224,529
225,521
226,516
227,506
228,494
229,484
230,489
231,509
232,550
233,556
234,536
235,499
236,476
237,463
238,458
239,459
240,466
241,482
242,490
243,486
244,472
245,464
246,467
247,484
248,495
249,496
250,497
251,505
252,514
253,515
254,514
255,494
256,475
257,473
258,470
259,480
260,482
261,498
262,504
263,491
264,476
265,467
266,468
267,452
268,440
269,448
270,467
271,483
272,491
273,510
274,518
275,521
276,528
277,527
278,519
279,512
280,501
281,514
282,545
283,556
284,560
285,570
286,571
287,567
288,545
289,518
290,505
291,494
292,491
293,475
294,465
295,482
296,505
297,515
298,530
299,545
300,553
301,555
302,556
303,536
304,519
305,518
306,526
307,536
308,515
309,492
310,488
311,500
312,525
313,532
314,544
315,555
316,557
317,558
318,550
319,544
320,556
321,559
322,557
323,543
324,527
325,515
326,521
327,520
328,512
329,507
330,509
331,520
332,522
333,516
334,513
335,504
336,500
337,498
338,488
339,484
340,488
341,499
342,505
343,508
344,510
345,522
346,529
347,535
348,537
349,538
350,534
351,527
352,524
353,523
354,532
355,539
356,542
357,546
358,562
359,568
360,555
361,549
362,555
363,568
364,564
365,539
366,500
367,463
368,470
369,447
370,428
371,417
372,415
373,415
374,436
375,470
376,495
377,520
378,537
379,539
380,536
381,518
382,508
383,494
384,471
385,451
386,434
387,438
388,450
389,462
390,472
391,491
392,511
393,527
394,528
395,526
396,529
397,519
398,515
399,513
400,519
401,525
402,531
403,545
404,548
405,534
406,516
407,498
408,486
409,474
410,476
411,488
412,501
413,497
414,503
415,507
416,526
417,541
418,530
419,524
420,524
421,522
422,515
423,500
424,480
425,465
426,463
427,464
428,469
429,465
430,460
431,471
432,496
433,513
434,513
435,516
436,520
437,515
438,504
439,501
440,508
441,515
442,511
443,501
444,498
445,494
446,488
447,476
448,446
449,437
450,440
451,438
452,448
453,449
454,456
455,467
456,479
457,487
458,483
459,495
460,503
461,496
462,488
463,465
464,460
465,462
466,459
467,457
468,471
469,501
470,517
471,514
472,516
473,512
474,503
475,510
476,513
477,508
478,495
479,491
480,484
481,491
482,506
483,514
484,519
485,516
486,520
487,510
488,501
489,490
490,485
491,492
492,499
493,505
494,502
495,509
496,529
497,545
498,547
499,551
500,552
501,541
502,537
503,531
504,526
505,530
506,537
507,540
508,542
509,526
510,506
511,489
512,482
513,487
514,487
515,505
516,525
517,545
518,565
519,583
520,589
521,604
522,620
523,627
524,634
525,633
526,620
527,611
528,611
529,601
530,590
531,584
532,564
533,527
534,499
535,482
536,477
537,475
538,484
539,509
540,505
541,504
542,492
543,481
544,476
545,476
546,476
547,483
548,488
549,481
550,481
551,493
552,505
553,518
554,527
555,538
556,543
557,543
558,523
559,510
560,532
561,544
562,555
563,549
564,534
565,536
566,542
567,549
568,551
569,540
570,540
571,532
572,528
573,512
574,503
575,511
576,521
577,546
578,531
579,513
580,511
581,525
582,538
583,528
584,531
585,546
586,562
587,577
588,587
589,589
590,589
591,599
592,595
593,595
594,578
595,559
596,543
597,528
598,496
599,461
600,448
601,457
602,460
603,455
604,448
605,449
606,448
607,438
608,415
609,406
610,409
611,415
612,431
613,451
614,459
615,460
616,468
617,480
618,498
619,509
620,514
621,526
622,531
623,548
624,557
625,562
626,550
627,536
628,528
629,520
630,527
631,539
632,542
633,531
634,520
635,522
636,523
637,524
638,502
639,483
640,462
641,450
642,451
643,453
644,441
645,432
646,434
647,447
648,457
649,472
650,491
651,508
652,521
653,514
654,503
655,507
656,519
657,530
658,515
659,513
660,508
661,495
662,501
663,491
664,490
665,490
666,492
667,481
668,481
669,478
670,461
671,448
672,456
673,482
674,498
675,511
676,524
677,524
678,519
679,523
680,531
681,530
682,521
683,523
684,524
685,531
686,538
687,538
688,533
689,532
690,537
691,539
692,543
693,545
694,544
695,533
696,519
697,519
698,511
699,513
700,499
701,487
702,492
703,502
704,518
705,531
706,543
707,555
708,545
709,536
710,531
711,527
712,520
713,518
714,517
715,515
716,529
717,550
718,558
719,547
720,547
721,555
722,552
723,544
724,540
725,545
726,537
727,523
728,496
729,472
730,457
731,449
732,464
733,476
734,476
735,481
736,493
737,499
738,507
739,509
740,508
741,511
742,517
743,507
744,506
745,516
746,528
747,534
748,532
749,521
750,521
751,525
752,527
753,519
754,518
755,520
756,534
757,544
758,541
759,536
760,550
761,554
762,561
763,558
764,543
765,520
766,510
767,493
768,488
769,495
770,523
771,553
772,563
773,560
774,533
775,504
776,499
777,508
778,511
779,500
780,492
781,488
782,493
783,477
784,471
785,475
786,482
787,494
788,483
789,491
790,487
791,476
792,464
793,450
794,436
795,433
796,432
797,430
798,430
799,435
800,463
801,484
802,511
803,513
804,509
805,494
806,478
807,466
808,480
809,496
810,514
811,526
812,528
813,541
814,545
815,540
816,537
817,519
818,502
819,487
820,467
821,463
822,479
823,475
824,465
825,479
826,490
827,496
828,510
829,504
830,502
831,501
832,500
833,505
834,497
835,501
836,513
837,532
838,534
839,526
840,508
841,498
842,492
843,479
844,476
845,485
846,499
847,518
848,537
849,526
850,513
851,511
852,513
853,538
854,557
855,560
856,567
857,535
858,535
859,531
860,522
861,530
862,546
863,541
864,524
865,509
866,511
867,524
868,524
869,520
870,529
871,514
872,510
873,509
874,501
875,489
876,485
877,489
878,503
879,500
880,512
881,528
882,550
883,561
884,564
885,563
886,562
887,565
888,543
889,529
890,519
891,505
892,504
893,485
894,476
895,472
896,471
897,475
898,463
899,461
900,468
901,476
902,470
903,471
904,481
905,502
906,512
907,532
908,549
909,555
910,557
911,566
912,573
913,568
914,566
915,541
916,525
917,517
918,499
919,481
920,475
921,476
922,475
923,457
924,446
925,441
926,441
927,440
928,436
929,443
930,461
931,463
932,480
933,480
934,480
935,487
936,499
937,500
938,482
939,474
940,484
941,499
942,529
943,541
944,534
945,531
946,540
947,550
948,565
949,563
950,551
951,550
952,559
953,547
954,526
955,517
956,507
957,495
958,492
959,495
960,504
961,513
962,524
963,512
964,497
965,500
966,505
967,512
968,519
969,524
970,531
971,527
972,520
973,522
974,519
975,507
976,514
977,529
978,550
979,572
980,588
981,591
982,579
983,570
984,554
985,534
986,527
987,526
988,532
989,548
990,553
991,557
992,569
993,560
994,567
995,585
996,587
997,582
998,589
999,583
1000,578
1001,563
1002,542
1003,516
1004,492
1005,477
1006,467
1007,461
1008,452
1009,430
1010,424
1011,431
1012,448
1013,457
1014,459
1015,451
1016,451
1017,452
1018,442
1019,445
1020,460
1021,468
1022,469
1023,462
1024,457
1025,448
1026,454
1027,459
1028,464
1029,481
1030,507
1031,527
1032,546
1033,554
1034,556
1035,553
1036,543
1037,532
1038,519
1039,511
1040,510
1041,495
1042,502
1043,506
1044,489
1045,472
1046,461
1047,446
1048,448
1049,465
1050,493
1051,512
1052,519
1053,531
1054,531
1055,531
1056,541
1057,536
1058,533
1059,530
1060,529
1061,536
1062,531
1063,533
1064,526
1065,518
1066,510
1067,516
1068,531
1069,550
1070,572
1071,577
1072,584
1073,588
1074,576
1075,576
1076,587
1077,589
1078,574
1079,544
1080,530
1081,520
1082,508
1083,491
1084,474
1085,457
1086,442
1087,433
1088,416
1089,388
1090,380
1091,385
1092,401
1093,424
1094,443
1095,457
1096,473
1097,507
1098,510
1099,498
1100,487
1101,489
1102,496
1103,505
1104,512
1105,518
1106,521
1107,519
1108,517
1109,508
1110,513
1111,529
1112,547
1113,559
1114,553
1115,544
1116,537
1117,539
1118,535
1119,536
1120,529
1121,508
1122,483
1123,476
1124,473
1125,484
1126,499
1127,515
1128,527
1129,531
1130,550
1131,557
1132,546
1133,531
1134,502
1135,477
1136,471
1137,475
1138,468
1139,463
1140,478
1141,486
1142,492
1143,482
1144,466
1145,466
1146,477
1147,491
1148,481
1149,465
1150,458
1151,451
1152,439
1153,432
1154,432
1155,444
1156,459
1157,463
1158,453
1159,444
1160,446
1161,459
1162,477
1163,489
1164,496
1165,503
1166,505
1167,515
1168,526
1169,529
1170,530
1171,520
1172,510
1173,496
1174,489
1175,492
1176,492
1177,497
1178,483
1179,470
1180,468
1181,458
1182,456
1183,459
1184,473
1185,489
1186,510
1187,531
1188,518
1189,512
1190,509
1191,499
1192,496
1193,480
1194,464
1195,466
1196,482
1197,506
1198,508
1199,518
1200,524
1201,522
1202,510
1203,517
1204,527
1205,538
1206,541
1207,533
1208,521
1209,521
1210,536
1211,548
1212,563
1213,573
1214,569
1215,560
1216,553
1217,525
1218,500
1219,481
1220,471
1221,455
1222,450
1223,452
1224,454
1225,455
1226,469
1227,481
1228,484
1229,480
1230,478
1231,483
1232,488
1233,487
1234,492
1235,509
1236,513
1237,524
1238,532
1239,528
1240,524
1241,528
1242,537
1243,540
1244,526
1245,523
1246,532
1247,522
1248,513
1249,504
1250,501
1251,488
1252,492
1253,509
1254,515
1255,510
1256,518
1257,539
1258,557
1259,562
1260,559
1261,550
1262,527
1263,504
1264,480
1265,469
1266,481
1267,490
1268,498
1269,503
1270,516
1271,527
1272,529
1273,533
1274,524
1275,509
1276,499
1277,507
1278,499
1279,501
1280,519
1281,540
1282,550
1283,537
1284,527
1285,521
1286,509
1287,503
1288,487
1289,479
1290,470
1291,465
1292,479
1293,469
1294,472
1295,481
1296,493
1297,502
1298,511
1299,516
1300,532
1301,550
1302,547
1303,538
1304,530
1305,519
1306,507
1307,498
1308,492
1309,492
1310,502
1311,483
1312,485
1313,472
1314,452
1315,453
1316,476
1317,493
1318,503
1319,508
1320,502
1321,497
1322,491
1323,491
1324,505
1325,508
1326,529
1327,535
1328,523
1329,502
1330,488
1331,489
1332,507
1333,509
1334,488
1335,477
1336,476
1337,472
1338,465
1339,461
1340,471
1341,479
1342,474
1343,460
1344,455
1345,473
1346,510
1347,533
1348,535
1349,541
1350,541
1351,536
1352,536
1353,513
1354,505
1355,507
1356,507
1357,509
1358,497
1359,500
1360,511
1361,512
1362,515
1363,499
1364,494
1365,512
1366,505
1367,515
1368,512
1369,522
1370,535
1371,538
1372,551
1373,552
1374,543
1375,531
1376,540
1377,559
1378,574
1379,576
1380,576
1381,570
1382,543
1383,537
1384,536
1385,547
1386,562
1387,572
1388,563
1389,538
1390,512
1391,513
1392,525
1393,527
1394,519
1395,522
1396,536
1397,544
1398,542
1399,523
1400,517
1401,515
1402,518
1403,521
1404,508
1405,501
1406,513
1407,522
1408,516
1409,513
1410,507
1411,494
1412,490
1413,511
1414,529
1415,535
1416,536
1417,537
1418,543
1419,560
1420,570
1421,569
1422,563
1423,557
1424,551
1425,551
1426,552
1427,554
1428,536
1429,519
1430,514
1431,519
1432,529
1433,535
1434,539
1435,554
1436,563
1437,574
1438,572
1439,560
1440,554
1441,558
1442,563
1443,557
1444,558
1445,566
1446,561
1447,552
1448,542
1449,533
1450,526
1451,525
1452,524
1453,520
1454,520
1455,518
1456,518
1457,521
1458,512
1459,499
1460,497
1461,496
1462,505
1463,505
1464,507
1465,501
1466,496
1467,495
1468,510
1469,518
1470,519
1471,515
1472,519
1473,515
1474,504
1475,501
1476,512
1477,519
1478,513
1479,518
1480,536
1481,555
1482,565
1483,565
1484,559
1485,549
1486,540
1487,537
1488,546
1489,523
1490,508
1491,498
1492,491
1493,502
1494,504
1495,508
1496,517
1497,504
1498,520
1499,540
1500,545
1501,546
1502,551
1503,558
1504,556
1505,523
1506,500
1507,486
1508,487
1509,489
1510,484
1511,481
1512,483
1513,494
1514,494
1515,489
1516,491
1517,499
1518,499
1519,493
1520,491
1521,481
1522,480
1523,481
1524,479
1525,469
1526,462
1527,455
1528,457
1529,473
1530,499
1531,504
1532,526
1533,542
1534,536
1535,526
1536,528
1537,532
1538,507
1539,473
1540,466
1541,478
1542,492
1543,494
1544,495
1545,488
1546,474
1547,455
1548,440
1549,432
1550,424
1551,418
1552,422
1553,441
1554,455
1555,467
1556,469
1557,465
1558,455
1559,435
1560,430
1561,439
1562,448
1563,457
1564,453
1565,450
1566,457
1567,455
1568,440
1569,424
1570,427
1571,442
1572,462
1573,463
1574,463
1575,452
1576,459
1577,479
1578,491
1579,493
1580,509
1581,523
1582,534
1583,531
1584,529
1585,528
1586,526
1587,533
1588,529
1589,536
1590,544
1591,560
1592,570
1593,574
1594,560
1595,535
1596,509
1597,496
1598,479
1599,472
1600,476
1601,489
1602,495
1603,482
1604,468
1605,474
1606,496
1607,474
1608,462
1609,461
1610,463
1611,473
1612,484
1613,492
1614,496
1615,499
1616,498
1617,498
1618,489
1619,489
1620,490
1621,481
1622,476
1623,478
1624,483
1625,494
1626,502
1627,511
1628,511
1629,505
1630,508
1631,507
1632,495
1633,483
1634,478
1635,492
1636,500
1637,499
1638,491
1639,488
1640,488
1641,502
1642,521
1643,509
1644,503
1645,508
1646,515
1647,525
1648,518
1649,509
1650,510
1651,521
1652,534
1653,535
1654,535
1655,526
1656,516
1657,516
1658,505
1659,499
1660,508
1661,514
1662,534
1663,530
1664,523
1665,523
1666,539
1667,558
1668,561
1669,545
1670,532
1671,527
1672,532
1673,542
1674,542
1675,542
1676,550
1677,548
1678,558
1679,568
1680,573
1681,585
1682,581
1683,561
1684,555
1685,563
1686,552
1687,535
1688,536
1689,550
1690,545
1691,556
1692,564
1693,548
1694,526
1695,513
1696,498
1697,497
1698,500
1699,506
1700,511
1701,522
1702,522
1703,507
1704,496
1705,499
1706,498
1707,494
1708,483
1709,482
1710,486
1711,494
1712,508
1713,515
1714,518
1715,534
1716,547
1717,554
1718,539
1719,523
1720,515
1721,508
1722,515
1723,514
1724,513
1725,512
1726,514
1727,510
1728,500
1729,491
1730,483
1731,472
1732,467
1733,445
1734,410
1735,392
1736,372
1737,370
1738,389
1739,408
1740,418
1741,432
1742,448
1743,454
1744,460
1745,484
1746,514
1747,525
1748,513
1749,495
1750,492
1751,493
1752,496
1753,490
1754,485
1755,480
1756,480
1757,488
1758,491
1759,488
1760,493
1761,508
1762,526
1763,528
1764,512
1765,501
1766,499
1767,507
1768,486
1769,469
1770,472
1771,492
1772,500
1773,507
1774,520
1775,534
1776,540
1777,542
1778,529
1779,516
1780,500
1781,493
1782,505
1783,531
1784,539
1785,526
1786,507
1787,495
1788,488
1789,480
1790,492
1791,506
1792,523
1793,524
1794,524
1795,540
1796,557
1797,566
1798,571
1799,543
1800,531
1801,517
1802,506
1803,505
1804,498
1805,502
1806,511
1807,513
1808,505
1809,496
1810,494
1811,496
1812,508
1813,503
1814,494
1815,502
1816,504
1817,518
1818,517
1819,513
1820,502
1821,493
1822,508
1823,519
1824,514
1825,507
1826,510
1827,520
1828,534
1829,532
1830,511
1831,491
1832,478
1833,470
1834,464
1835,467
1836,467
1837,472
1838,474
1839,474
1840,478
1841,494
1842,511
1843,515
1844,512
1845,524
1846,540
1847,544
1848,534
1849,523
1850,519
1851,515
1852,507
1853,519
1854,532
1855,531
1856,528
1857,525
1858,532
1859,529
1860,540
1861,549
1862,563
1863,573
1864,567
1865,565
1866,571
1867,574
1868,570
1869,563
1870,554
1871,546
1872,551
1873,573
1874,573
1875,557
1876,545
1877,537
1878,526
1879,525
1880,529
1881,546
1882,567
1883,583
1884,579
1885,577
1886,579
1887,588
1888,607
1889,615
1890,612
1891,607
1892,601
1893,575
1894,551
1895,536
1896,525
1897,526
1898,543
1899,540
1900,531
1901,522
1902,501
1903,470
1904,457
1905,462
1906,467
1907,487
1908,500
1909,494
1910,482
1911,480
1912,479
1913,465
1914,463
1915,472
1916,492
1917,505
1918,505
1919,497
1920,503
1921,516
1922,527
1923,526
1924,513
1925,509
1926,507
1927,504
1928,500
1929,499
1930,499
1931,497
1932,504
1933,516
1934,521
1935,519
1936,510
1937,500
1938,496
1939,495
1940,487
1941,470
1942,467
1943,479
1944,492
1945,512
1946,529
1947,538
1948,549
1949,556
1950,568
1951,575
1952,565
1953,560
1954,552
1955,550
1956,547
1957,544
1958,532
1959,516
1960,495
1961,493
1962,496
1963,513
1964,520
1965,522
1966,527
1967,526
1968,519
1969,514
1970,514
1971,512
1972,511
1973,501
1974,488
1975,483
1976,487
1977,500
1978,508
1979,507
1980,511
1981,504
1982,481
1983,454
1984,439
1985,438
1986,438
1987,448
1988,444
1989,442
1990,457
1991,481
1992,506
1993,516
1994,517
1995,521
1996,525
1997,527
1998,511
1999,501
