timestamp,signal
0,537
1,561
2,581
3,592
4,583
5,559
6,557
7,563
8,559
9,548
10,523
11,518
12,516
13,510
14,511
15,491
16,488
17,494
18,487
19,483
20,482
21,490
22,499
23,506
24,506
25,495
26,496
27,515
28,534
29,547
30,544
31,553
32,564
33,540
34,527
35,511
36,506
37,497
38,494
39,489
40,469
41,469
42,486
43,502
44,508
45,498
46,510
47,512
48,497
49,497
50,507
51,531
52,540
53,522
54,504
55,492
56,498
57,513
58,498
59,502
60,499
61,495
62,485
63,481
64,475
65,468
66,471
67,472
68,477
69,488
70,480
71,486
72,503
73,524
74,523
75,516
76,516
77,515
78,505
79,494
80,472
81,465
82,480
83,496
84,490
85,451
86,435
87,444
88,467
89,496
90,515
91,534
92,547
93,559
94,556
95,531
96,525
97,530
98,539
99,550
100,543
101,552
102,552
103,551
104,544
105,523
106,520
107,530
108,532
109,531
110,525
111,527
112,534
113,524
114,511
115,504
116,512
117,523
118,525
119,518
120,489
121,478
122,487
123,486
124,488
125,477
126,472
127,477
128,477
129,483
130,479
131,496
132,526
133,533
134,528
135,520
136,524
137,535
138,540
139,542
140,526
141,532
142,538
143,542
144,539
145,519
146,520
147,526
148,522
149,529
150,529
151,541
152,563
153,583
154,596
155,591
156,572
157,544
158,523
159,508
160,487
161,488
162,506
163,526
164,548
165,544
166,549
167,545
168,535
169,523
170,518
171,528
172,539
173,528
174,518
175,503
176,511
177,532
178,540
179,542
180,543
181,558
182,566
183,561
184,569
185,574
186,575
187,565
188,550
189,527
190,506
191,502
192,502
193,485
194,467
195,453
196,472
197,503
198,519
199,527
200,516
201,489
202,489
203,486
204,484
205,478
206,497
207,514
208,514
209,521
210,511
211,503
212,478
213,469
214,466
215,453
216,460
217,479
218,486
219,481
220,470
221,482
222,497
223,507
224,508
225,501
226,502
227,512
228,517
229,526
230,518
231,516
232,513
233,496
234,473
235,447
236,440
237,446
238,440
239,439
240,431
241,447
242,473
243,498
244,508
245,494
246,497
247,502
248,504
249,499
250,482
251,489
252,499
253,497
254,487
255,460
256,450
257,453
258,455
259,454
260,439
261,426
262,417
263,425
264,422
265,414
266,413
267,419
268,443
269,446
270,437
271,426
272,425
273,442
274,460
275,454
276,452
277,460
278,476
279,507
280,513
281,521
282,539
283,542
284,532
285,503
286,491
287,483
288,480
289,489
290,485
291,497
292,505
293,502
294,507
295,497
296,489
297,494
298,500
299,511
300,499
301,506
302,504
303,499
304,496
305,472
306,470
307,476
308,481
309,490
310,500
311,515
312,530
313,550
314,559
315,543
316,509
317,495
318,512
319,518
320,496
321,481
322,479
323,482
324,477
325,465
326,472
327,488
328,496
329,515
330,535
331,553
332,547
333,540
334,537
335,527
336,525
337,527
338,531
339,532
340,521
341,531
342,543
343,550
344,550
345,530
346,525
347,535
348,546
349,563
350,564
351,570
352,567
353,565
354,576
355,573
356,572
357,569
358,572
359,563
360,530
361,496
362,488
363,501
364,503
365,492
366,483
367,484
368,488
369,473
370,435
371,432
372,448
373,463
374,474
375,475
376,484
377,499
378,507
379,513
380,496
381,513
382,531
383,543
384,544
385,539
386,547
387,552
388,547
389,546
390,545
391,556
392,556
393,558
394,559
395,536
396,527
397,521
398,499
399,488
400,480
401,490
402,504
403,519
404,524
405,509
406,500
407,486
408,471
409,455
410,452
411,463
412,460
413,457
414,452
415,446
416,458
417,475
418,482
419,477
420,454
421,444
422,457
423,489
424,523
425,534
426,554
427,574
428,586
429,595
430,584
431,583
432,588
433,585
434,571
435,527
436,512
437,500
438,482
439,471
440,458
441,461
442,455
443,459
444,465
445,473
446,498
447,509
448,507
449,509
450,497
451,504
452,522
453,543
454,554
455,533
456,521
457,523
458,520
459,515
460,494
461,505
462,515
463,516
464,520
465,510
466,504
467,508
468,505
469,498
470,479
471,476
472,489
473,499
474,520
475,539
476,567
477,567
478,579
479,580
480,566
481,567
482,575
483,579
484,582
485,580
486,581
487,572
488,560
489,552
490,542
491,549
492,556
493,566
494,567
495,545
496,535
497,534
498,530
499,535
500,525
501,530
502,531
503,520
504,505
505,472
506,464
507,466
508,474
509,472
510,467
511,467
512,477
513,468
514,465
515,457
516,460
517,459
518,467
519,480
520,480
521,486
522,505
523,522
524,538
525,542
526,555
527,566
528,562
529,567
530,565
531,550
532,532
533,512
534,498
535,496
536,515
537,527
538,528
539,545
540,556
541,569
542,575
543,580
544,577
545,559
546,551
547,550
548,542
549,533
550,509
551,505
552,509
553,515
554,513
555,504
556,508
557,502
558,484
559,480
560,474
561,491
562,509
563,521
564,534
565,524
566,530
567,535
568,527
569,530
570,542
571,561
572,569
573,554
574,534
575,519
576,513
577,501
578,498
579,517
580,536
581,554
582,550
583,527
584,503
585,479
586,489
587,499
588,481
589,454
590,421
591,427
592,449
593,470
594,483
595,482
596,494
597,499
598,508
599,522
600,510
601,523
602,521
603,523
604,517
605,506
606,514
607,517
608,517
609,513
610,503
611,512
612,535
613,546
614,543
615,544
616,534
617,519
618,529
619,526
620,526
621,512
622,486
623,479
624,475
625,472
626,483
627,495
628,494
629,507
630,508
631,499
632,489
633,497
634,506
635,511
636,514
637,532
638,540
639,545
640,533
641,537
642,540
643,542
644,532
645,495
646,475
647,476
648,482
649,478
650,457
651,455
652,461
653,472
654,480
655,468
656,467
657,480
658,488
659,503
660,513
661,540
662,556
663,543
664,534
665,536
666,538
667,526
668,499
669,481
670,472
671,478
672,484
673,477
674,472
675,453
676,447
677,459
678,457
679,440
680,414
681,416
682,426
683,444
684,452
685,462
686,490
687,498
688,500
689,487
690,479
691,489
692,493
693,481
694,460
695,411
696,378
697,380
698,411
699,447
700,453
701,467
702,485
703,500
704,511
705,512
706,521
707,524
708,518
709,506
710,476
711,476
712,492
713,502
714,511
715,497
716,495
717,487
718,479
719,480
720,474
721,491
722,505
723,518
724,517
725,506
726,506
727,515
728,497
729,507
730,525
731,538
732,538
733,540
734,547
735,537
736,536
737,541
738,527
739,500
740,465
741,437
742,429
743,431
744,444
745,451
746,478
747,511
748,536
749,561
750,562
751,563
752,548
753,538
754,550
755,561
756,577
757,574
758,557
759,541
760,521
761,516
762,525
763,538
764,546
765,524
766,520
767,521
768,519
769,518
770,496
771,486
772,487
773,492
774,480
775,468
776,488
777,512
778,532
779,530
780,519
781,521
782,530
783,548
784,537
785,509
786,484
787,468
788,475
789,494
790,501
791,505
792,502
793,505
794,514
795,513
796,523
797,534
798,536
799,535
800,515
801,509
802,508
803,513
804,519
805,511
806,513
807,517
808,508
809,504
810,491
811,489
812,492
813,492
814,492
815,480
816,469
817,470
818,471
819,475
820,460
821,470
822,490
823,496
824,502
825,498
826,508
827,509
828,499
829,500
830,489
831,508
832,533
833,538
834,532
835,521
836,533
837,553
838,543
839,538
840,546
841,553
842,555
843,544
844,545
845,509
846,499
847,485
848,465
849,451
850,436
851,448
852,467
853,474
854,476
855,467
856,465
857,478
858,480
859,483
860,473
861,496
862,517
863,522
864,522
865,515
866,531
867,547
868,554
869,557
870,534
871,512
872,481
873,467
874,456
875,446
876,452
877,465
878,487
879,483
880,484
881,473
882,481
883,493
884,513
885,532
886,545
887,551
888,547
889,541
890,515
891,524
892,532
893,533
894,531
895,524
896,533
897,540
898,539
899,531
900,512
901,505
902,512
903,521
904,546
905,556
906,572
907,563
908,531
909,510
910,493
911,511
912,530
913,529
914,518
915,495
916,484
917,484
918,501
919,510
920,505
921,505
922,510
923,504
924,501
925,479
926,466
927,470
928,498
929,519
930,524
931,539
932,557
933,548
934,519
935,481
936,480
937,494
938,509
939,507
940,481
941,476
942,466
943,456
944,463
945,468
946,484
947,506
948,515
949,511
950,502
951,524
952,542
953,551
954,551
955,537
956,541
957,555
958,560
959,560
960,554
961,552
962,566
963,558
964,563
965,557
966,564
967,563
968,556
969,559
970,551
971,552
972,552
973,537
974,509
975,491
976,487
977,482
978,470
979,470
980,472
981,496
982,501
983,497
984,503
985,492
986,487
987,486
988,477
989,462
990,450
991,472
992,501
993,522
994,545
995,548
996,562
997,563
998,568
999,543
1000,511
1001,496
1002,492
1003,497
1004,492
1005,488
1006,486
1007,492
1008,507
1009,502
1010,481
1011,491
1012,508
1013,491
1014,480
1015,473
1016,474
1017,492
1018,509
1019,526
1020,503
1021,518
1022,531
1023,542
1024,553
1025,556
1026,574
1027,584
1028,562
1029,544
1030,536
1031,556
1032,563
1033,568
1034,569
1035,547
1036,534
1037,528
1038,499
1039,485
1040,464
1041,467
1042,483
1043,493
1044,504
1045,508
1046,528
1047,544
1048,555
1049,564
1050,551
1051,546
1052,553
1053,559
1054,572
1055,565
1056,575
1057,588
1058,586
1059,575
1060,551
1061,539
1062,527
1063,524
1064,540
1065,543
1066,547
1067,543
1068,532
1069,530
1070,538
1071,546
1072,542
1073,521
1074,509
1075,501
1076,498
1077,501
1078,482
1079,470
1080,476
1081,511
1082,542
1083,557
1084,565
1085,561
1086,569
1087,574
1088,574
1089,565
1090,561
1091,559
1092,565
1093,573
1094,583
1095,583
1096,579
1097,568
1098,541
1099,523
1100,491
1101,476
1102,476
1103,495
1104,521
1105,518
1106,523
1107,513
1108,492
1109,487
1110,481
1111,497
1112,508
1113,499
1114,491
1115,477
1116,484
1117,495
1118,498
1119,508
1120,510
1121,520
1122,530
1123,526
1124,516
1125,494
1126,490
1127,483
1128,489
1129,491
1130,487
1131,496
1132,496
1133,504
1134,514
1135,515
1136,507
1137,501
1138,486
1139,479
1140,470
1141,466
1142,449
1143,454
1144,464
1145,469
1146,491
1147,511
1148,511
1149,507
1150,499
1151,509
1152,514
1153,512
1154,507
1155,480
1156,478
1157,495
1158,493
1159,484
1160,461
1161,463
1162,476
1163,482
1164,486
1165,477
1166,494
1167,502
1168,501
1169,496
1170,473
1171,471
1172,476
1173,469
1174,480
1175,481
1176,496
1177,513
1178,519
1179,527
1180,528
1181,533
1182,536
1183,512
1184,486
1185,450
1186,429
1187,424
1188,424
1189,432
1190,424
1191,433
1192,451
1193,468
1194,491
1195,488
1196,500
1197,506
1198,508
1199,492
1200,479
1201,487
1202,510
1203,533
1204,540
1205,518
1206,510
1207,510
1208,514
1209,505
1210,486
1211,483
1212,492
1213,494
1214,480
1215,471
1216,488
1217,497
1218,505
1219,511
1220,492
1221,483
1222,477
1223,480
1224,493
1225,495
1226,504
1227,513
1228,531
1229,544
1230,536
1231,530
1232,528
1233,534
1234,532
1235,518
1236,507
1237,505
1238,507
1239,504
1240,494
1241,490
1242,481
1243,491
1244,489
1245,484
1246,501
1247,519
1248,518
1249,503
1250,473
1251,468
1252,472
1253,476
1254,486
1255,499
1256,527
1257,542
1258,549
1259,555
1260,552
1261,569
1262,580
1263,573
1264,563
1265,540
1266,534
1267,535
1268,539
1269,522
1270,494
1271,496
1272,516
1273,533
1274,539
1275,530
1276,519
1277,518
1278,525
1279,513
1280,475
1281,445
1282,433
1283,442
1284,448
1285,450
1286,463
1287,476
1288,492
1289,504
1290,480
1291,467
1292,478
1293,487
1294,504
1295,505
1296,517
1297,509
1298,503
1299,502
1300,492
1301,509
1302,511
1303,517
1304,515
1305,503
1306,495
1307,475
1308,464
1309,465
1310,449
1311,458
1312,476
1313,491
1314,497
1315,483
1316,480
1317,483
1318,505
1319,520
1320,504
1321,488
1322,477
1323,505
1324,513
1325,508
1326,493
1327,489
1328,493
1329,494
1330,495
1331,496
1332,499
1333,494
1334,493
1335,482
1336,488
1337,495
1338,502
1339,514
1340,513
1341,529
1342,529
1343,516
1344,510
1345,499
1346,507
1347,516
1348,523
1349,527
1350,509
1351,521
1352,547
1353,557
1354,559
1355,539
1356,539
1357,544
1358,537
1359,531
1360,519
1361,522
1362,531
1363,536
1364,542
1365,515
1366,520
1367,535
1368,537
1369,528
1370,519
1371,524
1372,533
1373,536
1374,527
1375,502
1376,483
1377,466
1378,440
1379,425
1380,428
1381,443
1382,450
1383,446
1384,455
1385,458
1386,472
1387,487
1388,488
1389,488
1390,479
1391,480
1392,498
1393,505
1394,506
1395,493
1396,495
1397,495
1398,489
1399,496
1400,481
1401,479
1402,481
1403,483
1404,500
1405,487
1406,491
1407,510
1408,522
1409,512
1410,496
1411,505
1412,543
1413,564
1414,571
1415,560
1416,545
1417,531
1418,530
1419,516
1420,488
1421,475
1422,471
1423,493
1424,485
1425,477
1426,487
1427,492
1428,488
1429,489
1430,478
1431,491
1432,516
1433,527
1434,531
1435,503
1436,493
1437,475
1438,457
1439,460
1440,459
1441,471
1442,486
1443,498
1444,510
1445,494
1446,503
1447,485
1448,480
1449,481
1450,465
1451,464
1452,488
1453,523
1454,538
1455,541
1456,551
1457,581
1458,583
1459,586
1460,587
1461,594
1462,585
1463,563
1464,545
1465,542
1466,559
1467,569
1468,563
1469,574
1470,557
1471,547
1472,535
1473,507
1474,488
1475,465
1476,471
1477,489
1478,512
1479,535
1480,532
1481,531
1482,533
1483,536
1484,531
1485,501
1486,490
1487,484
1488,476
1489,469
1490,459
1491,476
1492,510
1493,533
1494,544
1495,534
1496,534
1497,547
1498,566
1499,576
1500,560
1501,574
1502,578
1503,567
1504,557
1505,550
1506,553
1507,566
1508,561
1509,552
1510,554
1511,571
1512,587
1513,587
1514,568
1515,538
1516,534
1517,545
1518,551
1519,564
1520,556
1521,576
1522,568
1523,577
1524,581
1525,569
1526,576
1527,575
1528,573
1529,560
1530,537
1531,543
1532,556
1533,557
1534,553
1535,543
1536,546
1537,554
1538,559
1539,567
1540,554
1541,553
1542,556
1543,551
1544,534
1545,504
1546,494
1547,508
1548,537
1549,552
1550,540
1551,527
1552,518
1553,515
1554,502
1555,487
1556,495
1557,515
1558,524
1559,528
1560,515
1561,508
1562,519
1563,531
1564,527
1565,495
1566,482
1567,470
1568,462
1569,465
1570,457
1571,473
1572,496
1573,519
1574,528
1575,512
1576,506
1577,504
1578,502
1579,498
1580,486
1581,493
1582,505
1583,519
1584,529
1585,515
1586,517
1587,527
1588,539
1589,524
1590,499
1591,488
1592,483
1593,493
1594,487
1595,461
1596,443
1597,444
1598,466
1599,491
1600,511
1601,499
1602,499
1603,502
1604,501
1605,497
1606,503
1607,494
1608,476
1609,474
1610,459
1611,469
1612,459
1613,461
1614,465
1615,457
1616,437
1617,421
1618,423
1619,432
1620,423
1621,439
1622,456
1623,482
1624,507
1625,509
1626,516
1627,515
1628,499
1629,487
1630,478
1631,505
1632,511
1633,521
1634,517
1635,496
1636,494
1637,495
1638,496
1639,495
1640,475
1641,484
1642,480
1643,483
1644,478
1645,458
1646,467
1647,479
1648,478
1649,492
1650,486
1651,496
1652,523
1653,542
1654,554
1655,546
1656,542
1657,526
1658,513
1659,500
1660,472
1661,475
1662,483
1663,495
1664,522
1665,531
1666,537
1667,531
1668,529
1669,523
1670,513
1671,492
1672,482
1673,489
1674,469
1675,444
1676,436
1677,439
1678,449
1679,440
1680,430
1681,432
1682,447
1683,467
1684,475
1685,485
1686,519
1687,526
1688,550
1689,551
1690,534
1691,510
1692,495
1693,509
1694,502
1695,482
1696,472
1697,475
1698,491
1699,500
1700,471
1701,459
1702,468
1703,486
1704,486
1705,475
1706,472
1707,479
1708,486
1709,500
1710,492
1711,506
1712,520
1713,524
1714,527
1715,500
1716,509
1717,527
1718,527
1719,516
1720,500
1721,506
1722,511
1723,528
1724,540
1725,549
1726,575
1727,588
1728,583
1729,567
1730,534
1731,527
1732,527
1733,521
1734,531
1735,541
1736,563
1737,578
1738,569
1739,562
1740,549
1741,556
1742,569
1743,579
1744,589
1745,599
1746,614
1747,627
1748,630
1749,608
1750,576
1751,562
1752,558
1753,559
1754,552
1755,540
1756,545
1757,549
1758,544
1759,549
1760,548
1761,566
1762,566
1763,559
1764,556
1765,551
1766,553
1767,546
1768,535
1769,526
1770,502
1771,494
1772,500
1773,509
1774,511
1775,502
1776,515
1777,519
1778,527
1779,539
1780,527
1781,541
1782,549
1783,545
1784,539
1785,537
1786,544
1787,552
1788,565
1789,560
1790,560
1791,573
1792,576
1793,552
1794,529
1795,501
1796,496
1797,487
1798,475
1799,466
1800,451
1801,463
1802,480
1803,487
1804,485
1805,486
1806,502
1807,509
1808,512
1809,514
1810,503
1811,503
1812,509
1813,500
1814,486
1815,465
1816,468
1817,475
1818,481
1819,507
1820,518
1821,530
1822,539
1823,544
1824,537
1825,509
1826,496
1827,477
1828,480
1829,487
1830,495
1831,492
1832,484
1833,489
1834,481
1835,462
1836,463
1837,470
1838,479
1839,480
1840,465
1841,457
1842,457
1843,449
1844,446
1845,436
1846,449
1847,462
1848,467
1849,468
1850,451
1851,460
1852,484
1853,496
1854,493
1855,481
1856,475
1857,473
1858,466
1859,465
1860,460
1861,479
1862,492
1863,496
1864,499
1865,492
1866,500
1867,507
1868,514
1869,514
1870,514
1871,508
1872,501
1873,497
1874,481
1875,454
1876,439
1877,437
1878,444
1879,440
1880,428
1881,432
1882,432
1883,441
1884,446
1885,453
1886,481
1887,511
1888,524
1889,530
1890,526
1891,545
1892,567
1893,574
1894,588
1895,548
1896,524
1897,520
1898,517
1899,517
1900,511
1901,517
1902,523
1903,515
1904,500
1905,470
1906,470
1907,486
1908,502
1909,521
1910,524
1911,541
1912,552
1913,544
1914,544
1915,528
1916,519
1917,519
1918,527
1919,515
1920,497
1921,499
1922,504
1923,519
1924,511
1925,485
1926,457
1927,446
1928,459
1929,466
1930,452
1931,440
1932,436
1933,440
1934,448
1935,451
1936,470
1937,485
1938,487
1939,501
1940,500
1941,520
1942,534
1943,531
1944,531
1945,521
1946,527
1947,536
1948,543
1949,556
1950,549
1951,554
1952,558
1953,562
1954,563
1955,539
1956,524
1957,512
1958,504
1959,502
1960,502
1961,516
1962,535
1963,540
1964,532
1965,498
1966,498
1967,505
1968,512
1969,519
1970,504
1971,491
1972,496
1973,519
1974,517
1975,507
1976,496
1977,485
1978,480
1979,460
1980,437
1981,423
1982,428
1983,449
1984,444
1985,430
1986,422
1987,425
1988,444
1989,478
1990,484
1991,510
1992,534
1993,530
1994,534
1995,521
1996,513
1997,505
1998,505
1999,521
