timestamp,signal
0,500
1,500
2,503
3,500
4,487
5,475
6,483
7,494
8,513
9,511
10,518
11,524
12,529
13,527
14,526
15,508
16,506
17,516
18,528
19,537
20,526
21,518
22,504
23,478
24,470
25,460
26,467
27,477
28,480
29,494
30,501
31,511
32,524
33,530
34,531
35,517
36,496
37,481
38,474
39,482
40,477
41,467
42,460
43,460
44,468
45,471
46,486
47,491
48,488
49,495
50,481
51,480
52,486
53,489
54,485
55,467
56,460
57,465
58,464
59,475
60,479
61,483
62,487
63,470
64,463
65,462
66,468
67,483
68,486
69,480
70,463
71,474
72,484
73,487
74,509
75,502
76,511
77,512
78,511
79,529
80,519
81,531
82,545
83,549
84,553
85,532
86,527
87,525
88,510
89,504
90,486
91,480
92,470
93,460
94,456
95,446
96,452
97,464
98,479
99,496
100,505
101,529
102,540
103,546
104,556
105,551
106,553
107,548
108,535
109,516
110,505
111,512
112,521
113,523
114,531
115,541
116,546
117,561
118,580
119,579
120,557
121,536
122,530
123,548
124,561
125,569
126,579
127,570
128,569
129,573
130,558
131,553
132,545
133,546
134,558
135,551
136,542
137,545
138,546
139,546
140,543
141,551
142,554
143,542
144,527
145,507
146,497
147,499
148,496
149,505
150,516
151,516
152,520
153,522
154,530
155,539
156,543
157,545
158,540
159,546
160,554
161,568
162,576
163,577
164,576
165,562
166,567
167,576
168,567
169,547
170,519
171,492
172,479
173,475
174,481
175,491
176,509
177,524
178,531
179,539
180,527
181,522
182,531
183,543
184,550
185,551
186,555
187,562
188,568
189,559
190,548
191,533
192,513
193,501
194,508
195,509
196,518
197,527
198,524
199,520
200,502
201,495
202,503
203,511
204,519
205,488
206,468
207,464
208,451
209,458
210,467
211,493
212,516
213,519
214,508
215,491
216,490
217,492
218,492
219,489
220,492
221,509
222,520
223,515
224,516
225,513
226,506
227,508
228,506
229,503
230,496
231,499
232,509
233,502
234,487
235,478
236,482
237,492
238,494
239,490
240,490
241,501
242,506
243,508
244,511
245,510
246,517
247,508
248,491
249,488
250,477
251,472
252,452
253,433
254,412
255,405
256,422
257,435
258,444
259,461
260,467
261,484
262,497
263,488
264,476
265,471
266,485
267,511
268,529
269,541
270,543
271,543
272,543
273,532
274,524
275,513
276,518
277,522
278,508
279,512
280,522
281,534
282,543
283,529
284,521
285,510
286,498
287,479
288,446
289,428
290,419
291,426
292,436
293,452
294,467
295,470
296,469
297,464
298,468
299,487
300,501
301,528
302,535
303,532
304,535
305,545
306,554
307,551
308,559
309,562
310,559
311,533
312,536
313,552
314,559
315,544
316,516
317,489
318,489
319,491
320,473
321,469
322,484
323,485
324,471
325,455
326,470
327,478
328,470
329,484
330,492
331,498
332,499
333,504
334,512
335,508
336,509
337,517
338,523
339,520
340,508
341,514
342,513
343,510
344,510
345,496
346,493
347,493
348,499
349,514
350,515
351,515
352,510
353,501
354,511
355,521
356,531
357,563
358,572
359,573
360,570
361,571
362,559
363,555
364,542
365,517
366,509
367,487
368,467
369,476
370,484
371,499
372,510
373,508
374,495
375,481
376,497
377,514
378,520
379,531
380,527
381,526
382,513
383,491
384,475
385,454
386,447
387,457
388,480
389,514
390,538
391,545
392,546
393,548
394,542
395,537
396,542
397,553
398,560
399,557
400,551
401,545
402,534
403,534
404,551
405,559
406,552
407,548
408,558
409,539
410,510
411,502
412,502
413,495
414,492
415,487
416,498
417,508
418,502
419,493
420,485
421,502
422,506
423,508
424,518
425,523
426,538
427,549
428,548
429,549
430,547
431,545
432,539
433,530
434,527
435,513
436,514
437,514
438,507
439,513
440,517
441,522
442,529
443,529
444,523
445,512
446,514
447,517
448,512
449,520
450,519
451,519
452,518
453,521
454,531
455,518
456,510
457,508
458,511
459,512
460,499
461,501
462,502
463,484
464,490
465,492
466,495
467,517
468,514
469,511
470,508
471,514
472,521
473,520
474,534
475,540
476,546
477,546
478,537
479,531
480,532
481,532
482,532
483,522
484,509
485,490
486,479
487,479
488,478
489,478
490,471
491,481
492,455
493,454
494,460
495,464
496,480
497,492
498,504
499,521
500,523
501,523
502,511
503,494
504,500
505,485
506,485
507,503
508,526
509,543
510,548
511,548
512,543
513,508
514,482
515,447
516,443
517,445
518,446
519,455
520,456
521,465
522,467
523,463
524,462
525,453
526,463
527,482
528,477
529,472
530,460
531,456
532,468
533,478
534,489
535,489
536,485
537,492
538,511
539,541
540,550
541,546
542,528
543,519
544,519
545,514
546,508
547,491
548,504
549,520
550,518
551,501
552,492
553,508
554,517
555,503
556,518
557,542
558,540
559,545
560,536
561,534
562,531
563,515
564,492
565,484
566,497
567,514
568,530
569,548
570,552
571,560
572,566
573,565
574,560
575,547
576,540
577,542
578,544
579,548
580,553
581,542
582,544
583,550
584,559
585,553
586,551
587,552
588,564
589,575
590,571
591,554
592,543
593,552
594,551
595,539
596,530
597,523
598,527
599,531
600,528
601,528
602,535
603,534
604,521
605,498
606,475
607,459
608,470
609,481
610,486
611,494
612,500
613,491
614,489
615,494
616,500
617,508
618,512
619,515
620,516
621,533
622,528
623,521
624,525
625,503
626,473
627,455
628,452
629,462
630,474
631,484
632,485
633,485
634,492
635,494
636,505
637,516
638,511
639,505
640,498
641,495
642,502
643,505
644,496
645,484
646,496
647,497
648,504
649,516
650,508
651,510
652,519
653,520
654,529
655,499
656,479
657,461
658,456
659,460
660,462
661,474
662,478
663,474
664,479
665,479
666,489
667,500
668,496
669,504
670,503
671,513
672,538
673,546
674,552
675,554
676,559
677,556
678,551
679,551
680,543
681,548
682,559
683,546
684,532
685,505
686,499
687,508
688,507
689,518
690,524
691,526
692,528
693,528
694,525
695,523
696,523
697,527
698,539
699,548
700,540
701,531
702,526
703,543
704,551
705,550
706,547
707,546
708,544
709,546
710,543
711,550
712,556
713,547
714,537
715,519
716,523
717,533
718,525
719,520
720,511
721,515
722,523
723,514
724,507
725,486
726,470
727,455
728,441
729,449
730,451
731,461
732,472
733,481
734,487
735,479
736,485
737,499
738,509
739,513
740,491
741,475
742,463
743,448
744,444
745,450
746,467
747,481
748,480
749,476
750,475
751,483
752,494
753,489
754,480
755,471
756,467
757,473
758,475
759,479
760,484
761,494
762,511
763,522
764,524
765,503
766,494
767,489
768,475
769,461
770,449
771,462
772,473
773,472
774,475
775,478
776,495
777,519
778,518
779,513
780,510
781,521
782,535
783,526
784,514
785,504
786,500
787,495
788,483
789,476
790,456
791,453
792,468
793,476
794,476
795,476
796,484
797,487
798,484
799,483
800,473
801,477
802,488
803,493
804,497
805,480
806,467
807,466
808,477
809,491
810,491
811,490
812,496
813,494
814,490
815,479
816,479
817,487
818,493
819,502
820,504
821,511
822,516
823,510
824,495
825,478
826,474
827,492
828,513
829,522
830,520
831,519
832,524
833,545
834,556
835,558
836,558
837,563
838,565
839,563
840,551
841,550
842,564
843,567
844,553
845,524
846,516
847,505
848,495
849,488
850,486
851,499
852,515
853,524
854,515
855,495
856,499
857,516
858,524
859,532
860,525
861,523
862,529
863,537
864,555
865,569
866,583
867,595
868,590
869,575
870,559
871,559
872,557
873,528
874,516
875,512
876,511
877,508
878,495
879,503
880,518
881,545
882,553
883,544
884,533
885,519
886,523
887,515
888,503
889,491
890,471
891,484
892,508
893,531
894,555
895,565
896,574
897,574
898,567
899,568
900,552
901,545
902,532
903,524
904,528
905,527
906,531
907,534
908,535
909,536
910,518
911,509
912,513
913,510
914,516
915,523
916,536
917,543
918,554
919,555
920,542
921,528
922,516
923,506
924,505
925,496
926,509
927,513
928,507
929,502
930,505
931,512
932,516
933,510
934,491
935,486
936,496
937,505
938,500
939,491
940,473
941,478
942,491
943,486
944,487
945,501
946,526
947,540
948,529
949,519
950,504
951,497
952,492
953,474
954,464
955,460
956,476
957,488
958,485
959,485
960,492
961,502
962,504
963,500
964,503
965,504
966,516
967,503
968,484
969,465
970,455
971,459
972,465
973,461
974,466
975,454
976,450
977,467
978,489
979,516
980,524
981,527
982,524
983,512
984,510
985,510
986,508
987,512
988,514
989,524
990,520
991,519
992,514
993,503
994,495
995,479
996,468
997,469
998,458
999,467
1000,455
1001,459
1002,476
1003,492
1004,522
1005,525
1006,532
1007,533
1008,523
1009,514
1010,505
1011,512
1012,510
1013,506
1014,503
1015,498
1016,499
1017,508
1018,500
1019,489
1020,491
1021,495
1022,506
1023,515
1024,521
1025,520
1026,535
1027,537
1028,537
1029,533
1030,512
1031,510
1032,513
1033,505
1034,499
1035,487
1036,484
1037,488
1038,492
1039,493
1040,488
1041,500
1042,511
1043,518
1044,497
1045,471
1046,464
1047,473
1048,497
1049,505
1050,514
1051,523
1052,521
1053,512
1054,512
1055,512
1056,516
1057,528
1058,539
1059,556
1060,548
1061,543
1062,541
1063,535
1064,532
1065,521
1066,523
1067,537
1068,539
1069,549
1070,528
1071,535
1072,540
1073,527
1074,525
1075,522
1076,510
1077,492
1078,467
1079,450
1080,442
1081,445
1082,447
1083,435
1084,430
1085,432
1086,443
1087,459
1088,462
1089,463
1090,465
1091,478
1092,489
1093,505
1094,533
1095,547
1096,551
1097,548
1098,545
1099,546
1100,548
1101,546
1102,539
1103,539
1104,519
1105,487
1106,485
1107,504
1108,524
1109,548
1110,558
1111,570
1112,582
1113,576
1114,559
1115,529
1116,508
1117,495
1118,501
1119,519
1120,515
1121,517
1122,518
1123,512
1124,515
1125,516
1126,539
1127,539
1128,536
1129,533
1130,518
1131,515
1132,526
1133,528
1134,527
1135,513
1136,508
1137,509
1138,493
1139,485
1140,481
1141,481
1142,497
1143,496
1144,490
1145,476
1146,471
1147,481
1148,497
1149,514
1150,497
1151,492
1152,494
1153,480
1154,469
1155,448
1156,442
1157,454
1158,465
1159,473
1160,472
1161,473
1162,463
1163,451
1164,463
1165,474
1166,496
1167,517
1168,519
1169,527
1170,531
1171,538
1172,532
1173,527
1174,529
1175,528
1176,509
1177,497
1178,497
1179,503
1180,504
1181,509
1182,510
1183,520
1184,531
1185,537
1186,526
1187,519
1188,530
1189,517
1190,511
1191,509
1192,512
1193,521
1194,529
1195,529
1196,513
1197,509
1198,523
1199,530
1200,525
1201,509
1202,506
1203,511
1204,527
1205,535
1206,536
1207,515
1208,493
1209,455
1210,423
1211,417
1212,431
1213,449
1214,460
1215,462
1216,475
1217,487
1218,495
1219,499
1220,481
1221,481
1222,478
1223,483
1224,492
1225,479
1226,477
1227,480
1228,483
1229,507
1230,517
1231,529
1232,535
1233,524
1234,528
1235,534
1236,540
1237,539
1238,555
1239,563
1240,552
1241,543
1242,538
1243,538
1244,541
1245,556
1246,571
1247,571
1248,571
1249,586
1250,590
1251,584
1252,570
1253,566
1254,555
1255,551
1256,548
1257,547
1258,550
1259,533
1260,509
1261,512
1262,522
1263,528
1264,541
1265,539
1266,523
1267,516
1268,509
1269,505
1270,505
1271,516
1272,545
1273,554
1274,547
1275,534
1276,517
1277,507
1278,498
1279,497
1280,496
1281,502
1282,502
1283,496
1284,493
1285,486
1286,496
1287,510
1288,509
1289,501
1290,473
1291,454
1292,448
1293,458
1294,473
1295,469
1296,468
1297,479
1298,483
1299,501
1300,508
1301,512
1302,510
1303,492
1304,479
1305,451
1306,434
1307,438
1308,454
1309,465
1310,480
1311,502
1312,515
1313,513
1314,504
1315,489
1316,491
1317,498
1318,523
1319,541
1320,534
1321,508
1322,473
1323,474
1324,479
1325,484
1326,494
1327,497
1328,496
1329,485
1330,483
1331,486
1332,482
1333,487
1334,496
1335,498
1336,491
1337,481
1338,475
1339,468
1340,467
1341,468
1342,466
1343,482
1344,491
1345,499
1346,529
1347,526
1348,514
1349,508
1350,489
1351,483
1352,480
1353,451
1354,452
1355,463
1356,474
1357,475
1358,477
1359,494
1360,492
1361,483
1362,483
1363,489
1364,508
1365,514
1366,509
1367,491
1368,459
1369,445
1370,433
1371,443
1372,457
1373,462
1374,472
1375,479
1376,488
1377,495
1378,492
1379,502
1380,509
1381,530
1382,549
1383,544
1384,538
1385,522
1386,526
1387,541
1388,551
1389,554
1390,546
1391,556
1392,568
1393,558
1394,537
1395,512
1396,507
1397,509
1398,508
1399,515
1400,515
1401,515
1402,518
1403,518
1404,520
1405,505
1406,496
1407,478
1408,473
1409,470
1410,458
1411,462
1412,471
1413,497
1414,497
1415,476
1416,475
1417,486
1418,501
1419,507
1420,495
1421,496
1422,502
1423,518
1424,529
1425,550
1426,547
1427,535
1428,533
1429,536
1430,531
1431,534
1432,537
1433,537
1434,519
1435,485
1436,471
1437,477
1438,479
1439,492
1440,496
1441,508
1442,523
1443,518
1444,512
1445,504
1446,523
1447,538
1448,536
1449,542
1450,536
1451,535
1452,541
1453,543
1454,540
1455,520
1456,512
1457,514
1458,506
1459,506
1460,504
1461,514
1462,521
1463,510
1464,493
1465,484
1466,492
1467,507
1468,522
1469,535
1470,540
1471,539
1472,523
1473,500
1474,472
1475,442
1476,431
1477,436
1478,443
1479,462
1480,469
1481,474
1482,465
1483,472
1484,494
1485,495
1486,497
1487,496
1488,493
1489,504
1490,511
1491,532
1492,536
1493,528
1494,534
1495,530
1496,527
1497,541
1498,558
1499,577
1500,563
1501,545
1502,543
1503,558
1504,552
1505,541
1506,536
1507,530
1508,540
1509,541
1510,541
1511,535
1512,545
1513,553
1514,558
1515,559
1516,568
1517,569
1518,558
1519,540
1520,526
1521,520
1522,517
1523,522
1524,540
1525,550
1526,568
1527,580
1528,595
1529,620
1530,604
1531,597
1532,586
1533,579
1534,573
1535,562
1536,549
1537,531
1538,511
1539,508
1540,503
1541,509
1542,514
1543,519
1544,534
1545,540
1546,539
1547,542
1548,543
1549,535
1550,529
1551,535
1552,541
1553,551
1554,558
1555,553
1556,543
1557,540
1558,544
1559,553
1560,542
1561,536
1562,536
1563,521
1564,490
1565,455
1566,438
1567,421
1568,419
1569,434
1570,442
1571,459
1572,471
1573,470
1574,464
1575,459
1576,469
1577,476
1578,483
1579,494
1580,496
1581,512
1582,515
1583,504
1584,504
1585,496
1586,494
1587,503
1588,507
1589,526
1590,538
1591,557
1592,570
1593,568
1594,555
1595,541
1596,541
1597,536
1598,531
1599,535
1600,544
1601,550
1602,545
1603,537
1604,534
1605,526
1606,530
1607,527
1608,505
1609,483
1610,471
1611,464
1612,465
1613,476
1614,498
1615,506
1616,514
1617,519
1618,494
1619,472
1620,466
1621,454
1622,450
1623,443
1624,456
1625,461
1626,471
1627,491
1628,504
1629,509
1630,512
1631,509
1632,509
1633,499
1634,503
1635,504
1636,503
1637,502
1638,493
1639,509
1640,498
1641,505
1642,513
1643,522
1644,533
1645,533
1646,527
1647,520
1648,502
1649,489
1650,470
1651,470
1652,462
1653,463
1654,466
1655,443
1656,435
1657,449
1658,456
1659,489
1660,501
1661,520
1662,525
1663,523
1664,543
1665,551
1666,572
1667,560
1668,542
1669,536
1670,527
1671,511
1672,514
1673,529
1674,543
1675,554
1676,549
1677,545
1678,547
1679,543
1680,521
1681,503
1682,488
1683,481
1684,469
1685,436
1686,423
1687,431
1688,428
1689,437
1690,445
1691,454
1692,455
1693,445
1694,446
1695,432
1696,431
1697,436
1698,437
1699,457
1700,469
1701,484
1702,499
1703,513
1704,521
1705,510
1706,505
1707,515
1708,524
1709,538
1710,557
1711,555
1712,543
1713,552
1714,541
1715,532
1716,522
1717,515
1718,517
1719,517
1720,507
1721,491
1722,483
1723,481
1724,481
1725,484
1726,489
1727,504
1728,516
1729,532
1730,539
1731,530
1732,530
1733,530
1734,524
1735,506
1736,492
1737,491
1738,492
1739,506
1740,503
1741,509
1742,514
1743,515
1744,527
1745,543
1746,551
1747,551
1748,539
1749,523
1750,520
1751,520
1752,501
1753,474
1754,480
1755,486
1756,496
1757,506
1758,495
1759,489
1760,484
1761,465
1762,434
1763,418
1764,424
1765,437
1766,460
1767,481
1768,482
1769,486
1770,480
1771,482
1772,492
1773,496
1774,508
1775,521
1776,542
1777,557
1778,567
1779,573
1780,571
1781,568
1782,570
1783,574
1784,575
1785,570
1786,562
1787,551
1788,537
1789,539
1790,548
1791,541
1792,524
1793,519
1794,515
1795,499
1796,490
1797,501
1798,519
1799,538
1800,522
1801,518
1802,512
1803,512
1804,525
1805,537
1806,541
1807,518
1808,491
1809,480
1810,483
1811,498
1812,512
1813,522
1814,536
1815,537
1816,539
1817,543
1818,558
1819,567
1820,561
1821,562
1822,558
1823,549
1824,556
1825,552
1826,551
1827,546
1828,538
1829,547
1830,560
1831,583
1832,598
1833,588
1834,572
1835,557
1836,552
1837,546
1838,561
1839,544
1840,530
1841,529
1842,523
1843,517
1844,508
1845,515
1846,494
1847,488
1848,495
1849,506
1850,511
1851,523
1852,524
1853,512
1854,487
1855,469
1856,470
1857,476
1858,491
1859,508
1860,524
1861,515
1862,500
1863,499
1864,495
1865,492
1866,486
1867,470
1868,447
1869,420
1870,399
1871,401
1872,412
1873,415
1874,412
1875,415
1876,433
1877,466
1878,482
1879,488
1880,480
1881,462
1882,457
1883,461
1884,479
1885,492
1886,510
1887,520
1888,528
1889,539
1890,548
1891,556
1892,554
1893,544
1894,546
1895,534
1896,519
1897,517
1898,520
1899,528
1900,531
1901,539
1902,546
1903,537
1904,539
1905,550
1906,561
1907,564
1908,554
1909,549
1910,544
1911,549
1912,558
1913,561
1914,558
1915,559
1916,566
1917,569
1918,549
1919,534
1920,518
1921,515
1922,528
1923,523
1924,531
1925,531
1926,529
1927,534
1928,534
1929,550
1930,568
1931,579
1932,579
1933,553
1934,524
1935,498
1936,497
1937,481
1938,458
1939,446
1940,443
1941,460
1942,476
1943,488
1944,508
1945,504
1946,497
1947,500
1948,501
1949,511
1950,516
1951,536
1952,548
1953,553
1954,546
1955,536
1956,523
1957,526
1958,513
1959,516
1960,508
1961,512
1962,529
1963,553
1964,575
1965,581
1966,571
1967,556
1968,560
1969,589
1970,591
1971,595
1972,585
1973,577
1974,559
1975,543
1976,521
1977,504
1978,510
1979,515
1980,496
1981,481
1982,472
1983,462
1984,468
1985,472
1986,476
1987,486
1988,503
1989,519
1990,517
1991,514
1992,513
1993,515
1994,534
1995,539
1996,541
1997,544
1998,541
1999,541
