timestamp,signal
0,512
1,515
2,519
3,506
4,508
5,497
6,495
7,481
8,472
9,462
10,453
11,463
12,474
13,468
14,466
15,470
16,492
17,508
18,506
19,512
20,524
21,536
22,555
23,552
24,556
25,549
26,547
27,526
28,495
29,487
30,479
31,485
32,504
33,512
34,519
35,515
36,518
37,524
38,528
39,540
40,537
41,542
42,542
43,534
44,522
45,505
46,508
47,519
48,531
49,549
50,557
51,551
52,540
53,526
54,521
55,508
56,502
57,518
58,538
59,522
60,524
61,532
62,542
63,548
64,561
65,571
66,591
67,597
68,606
69,607
70,600
71,600
72,603
73,586
74,551
75,512
76,490
77,482
78,483
79,480
80,478
81,481
82,491
83,505
84,528
85,536
86,547
87,554
88,551
89,554
90,548
91,562
92,555
93,553
94,556
95,541
96,540
97,551
98,555
99,551
100,543
101,542
102,550
103,553
104,548
105,537
106,538
107,546
108,542
109,545
110,545
111,558
112,569
113,565
114,558
115,543
116,543
117,543
118,522
119,513
120,506
121,510
122,519
123,525
124,540
125,540
126,545
127,557
128,559
129,563
130,560
131,566
132,566
133,565
134,567
135,551
136,544
137,534
138,530
139,527
140,503
141,492
142,481
143,456
144,451
145,444
146,451
147,458
148,461
149,468
150,472
151,475
152,478
153,482
154,505
155,523
156,543
157,555
158,561
159,549
160,515
161,492
162,486
163,480
164,480
165,470
166,460
167,467
168,486
169,501
170,504
171,491
172,481
173,491
174,502
175,505
176,501
177,495
178,500
179,496
180,490
181,501
182,506
183,503
184,510
185,494
186,476
187,459
188,452
189,462
190,463
191,476
192,510
193,498
194,507
195,509
196,526
197,553
198,572
199,579
200,569
201,566
202,571
203,570
204,552
205,528
206,525
207,520
208,509
209,506
210,499
211,515
212,531
213,538
214,545
215,551
216,544
217,539
218,524
219,507
220,488
221,480
222,487
223,505
224,511
225,508
226,518
227,526
228,521
229,524
230,526
231,540
232,555
233,546
234,544
235,532
236,524
237,515
238,504
239,497
240,481
241,482
242,494
243,504
244,510
245,506
246,519
247,536
248,544
249,550
250,534
251,514
252,507
253,498
254,496
255,497
256,512
257,522
258,527
259,524
260,514
261,513
262,527
263,511
264,495
265,464
266,454
267,459
268,463
269,467
270,477
271,499
272,504
273,507
274,512
275,513
276,533
277,546
278,542
279,543
280,531
281,543
282,561
283,567
284,577
285,583
286,595
287,577
288,551
289,531
290,501
291,475
292,457
293,444
294,458
295,486
296,486
297,492
298,512
299,519
300,505
301,491
302,489
303,503
304,509
305,508
306,504
307,510
308,523
309,544
310,551
311,565
312,575
313,565
314,538
315,512
316,510
317,521
318,523
319,525
320,504
321,497
322,506
323,518
324,536
325,538
326,550
327,551
328,543
329,538
330,528
331,532
332,551
333,555
334,550
335,533
336,517
337,524
338,531
339,524
340,507
341,491
342,478
343,462
344,453
345,441
346,434
347,438
348,442
349,450
350,452
351,462
352,482
353,488
354,491
355,489
356,481
357,479
358,489
359,504
360,514
361,495
362,475
363,459
364,453
365,454
366,478
367,494
368,493
369,482
370,467
371,479
372,501
373,509
374,517
375,525
376,530
377,531
378,521
379,518
380,502
381,508
382,515
383,504
384,490
385,468
386,441
387,432
388,437
389,455
390,469
391,499
392,525
393,544
394,559
395,560
396,570
397,580
398,569
399,557
400,546
401,555
402,565
403,564
404,564
405,545
406,536
407,504
408,481
409,465
410,456
411,463
412,475
413,488
414,506
415,503
416,497
417,500
418,493
419,483
420,477
421,487
422,491
423,483
424,478
425,451
426,441
427,456
428,473
429,490
430,502
431,521
432,530
433,536
434,539
435,530
436,539
437,542
438,536
439,523
440,494
441,478
442,482
443,486
444,485
445,473
446,481
447,481
448,478
449,489
450,492
451,500
452,494
453,479
454,473
455,465
456,472
457,487
458,502
459,515
460,504
461,507
462,504
463,502
464,496
465,494
466,504
467,527
468,556
469,579
470,575
471,555
472,534
473,523
474,502
475,486
476,498
477,522
478,543
479,539
480,521
481,494
482,479
483,488
484,495
485,493
486,499
487,511
488,528
489,536
490,537
491,531
492,525
493,532
494,537
495,548
496,536
497,491
498,446
499,404
500,384
501,400
502,423
503,444
504,471
505,480
506,496
507,519
508,532
509,536
510,540
511,545
512,550
513,555
514,527
515,509
516,509
517,511
518,516
519,536
520,519
521,515
522,516
523,516
524,521
525,517
526,524
527,529
528,519
529,525
530,522
531,514
532,509
533,511
534,513
535,505
536,501
537,483
538,459
539,452
540,448
541,463
542,489
543,509
544,532
545,534
546,543
547,553
548,551
549,556
550,553
551,565
552,571
553,564
554,551
555,537
556,543
557,542
558,527
559,519
560,494
561,481
562,469
563,476
564,497
565,505
566,502
567,504
568,514
569,521
570,515
571,509
572,513
573,523
574,524
575,525
576,522
577,514
578,516
579,514
580,505
581,515
582,525
583,533
584,551
585,556
586,555
587,553
588,547
589,544
590,529
591,526
592,512
593,491
594,465
595,434
596,424
597,429
598,423
599,422
600,428
601,439
602,447
603,451
604,465
605,472
606,479
607,493
608,499
609,500
610,473
611,466
612,480
613,492
614,504
615,501
616,503
617,510
618,519
619,513
620,500
621,485
622,481
623,501
624,516
625,529
626,547
627,550
628,557
629,556
630,535
631,512
632,495
633,505
634,508
635,487
636,487
637,495
638,489
639,482
640,473
641,476
642,487
643,502
644,507
645,496
646,500
647,507
648,513
649,519
650,515
651,519
652,532
653,529
654,552
655,559
656,565
657,563
658,547
659,530
660,514
661,501
662,508
663,497
664,486
665,484
666,488
667,489
668,481
669,473
670,467
671,468
672,463
673,443
674,453
675,443
676,464
677,500
678,512
679,521
680,520
681,527
682,538
683,538
684,540
685,538
686,545
687,547
688,553
689,568
690,566
691,568
692,560
693,544
694,521
695,503
696,503
697,513
698,520
699,530
700,521
701,509
702,508
703,525
704,526
705,531
706,532
707,530
708,540
709,551
710,562
711,563
712,555
713,564
714,559
715,531
716,513
717,493
718,458
719,432
720,412
721,415
722,425
723,433
724,454
725,468
726,489
727,505
728,504
729,497
730,485
731,479
732,477
733,477
734,494
735,495
736,493
737,486
738,487
739,495
740,488
741,486
742,491
743,504
744,514
745,503
746,510
747,539
748,535
749,537
750,531
751,538
752,543
753,547
754,561
755,560
756,562
757,557
758,561
759,567
760,559
761,542
762,530
763,524
764,512
765,500
766,503
767,515
768,532
769,540
770,527
771,502
772,488
773,496
774,512
775,518
776,537
777,556
778,546
779,518
780,494
781,497
782,498
783,486
784,484
785,472
786,466
787,470
788,464
789,483
790,473
791,486
792,496
793,485
794,485
795,481
796,492
797,496
798,499
799,504
800,511
801,528
802,538
803,529
804,513
805,498
806,495
807,492
808,471
809,455
810,446
811,451
812,463
813,468
814,475
815,468
816,472
817,457
818,451
819,451
820,448
821,455
822,473
823,488
824,509
825,518
826,527
827,527
828,523
829,525
830,511
831,494
832,494
833,499
834,516
835,527
836,530
837,519
838,519
839,524
840,514
841,509
842,499
843,488
844,494
845,498
846,508
847,515
848,526
849,530
850,527
851,523
852,523
853,527
854,512
855,483
856,469
857,471
858,488
859,497
860,490
861,493
862,493
863,491
864,504
865,504
866,505
867,512
868,531
869,556
870,547
871,550
872,547
873,542
874,551
875,540
876,551
877,549
878,546
879,545
880,530
881,527
882,539
883,544
884,538
885,537
886,547
887,555
888,542
889,535
890,536
891,532
892,520
893,496
894,487
895,477
896,476
897,480
898,477
899,486
900,489
901,484
902,478
903,487
904,500
905,518
906,540
907,546
908,538
909,532
910,513
911,518
912,521
913,521
914,521
915,507
916,505
917,504
918,504
919,513
920,505
921,520
922,533
923,539
924,545
925,544
926,555
927,559
928,565
929,569
930,551
931,549
932,549
933,529
934,524
935,512
936,505
937,510
938,521
939,537
940,541
941,537
942,542
943,533
944,527
945,519
946,519
947,524
948,521
949,505
950,491
951,492
952,499
953,515
954,524
955,517
956,523
957,534
958,523
959,515
960,513
961,531
962,546
963,555
964,563
965,556
966,561
967,557
968,543
969,536
970,514
971,498
972,489
973,484
974,477
975,470
976,473
977,488
978,494
979,507
980,517
981,533
982,547
983,541
984,526
985,513
986,495
987,470
988,435
989,429
990,434
991,452
992,470
993,473
994,462
995,439
996,444
997,459
998,465
999,474
1000,469
1001,475
1002,487
1003,503
1004,523
1005,530
1006,529
1007,528
1008,519
1009,509
1010,490
1011,481
1012,478
1013,474
1014,461
1015,444
1016,438
1017,439
1018,446
1019,455
1020,439
1021,432
1022,424
1023,431
1024,446
1025,459
1026,479
1027,508
1028,529
1029,538
1030,519
1031,530
1032,547
1033,559
1034,570
1035,559
1036,546
1037,533
1038,522
1039,520
1040,513
1041,518
1042,523
1043,519
1044,522
1045,515
1046,513
1047,499
1048,477
1049,462
1050,441
1051,437
1052,451
1053,468
1054,487
1055,497
1056,512
1057,526
1058,523
1059,530
1060,539
1061,558
1062,584
1063,594
1064,594
1065,587
1066,572
1067,548
1068,524
1069,519
1070,506
1071,504
1072,512
1073,504
1074,497
1075,483
1076,478
1077,477
1078,470
1079,470
1080,464
1081,469
1082,479
1083,466
1084,453
1085,436
1086,446
1087,444
1088,439
1089,455
1090,473
1091,504
1092,529
1093,535
1094,540
1095,536
1096,542
1097,533
1098,518
1099,513
1100,507
1101,514
1102,509
1103,504
1104,500
1105,495
1106,501
1107,505
1108,510
1109,524
1110,545
1111,568
1112,588
1113,588
1114,584
1115,569
1116,549
1117,529
1118,519
1119,508
1120,498
1121,497
1122,484
1123,496
1124,502
1125,502
1126,488
1127,475
1128,472
1129,451
1130,425
1131,419
1132,431
1133,455
1134,477
1135,487
1136,502
1137,509
1138,514
1139,526
1140,536
1141,542
1142,543
1143,536
1144,524
1145,508
1146,504
1147,513
1148,523
1149,541
1150,549
1151,570
1152,588
1153,595
1154,580
1155,559
1156,548
1157,550
1158,558
1159,565
1160,549
1161,533
1162,537
1163,540
1164,536
1165,520
1166,528
1167,536
1168,530
1169,535
1170,541
1171,549
1172,555
1173,543
1174,534
1175,510
1176,493
1177,492
1178,493
1179,488
1180,479
1181,475
1182,471
1183,482
1184,485
1185,474
1186,474
1187,492
1188,510
1189,525
1190,527
1191,547
1192,574
1193,580
1194,581
1195,574
1196,580
1197,572
1198,562
1199,566
1200,549
1201,529
1202,519
1203,528
1204,545
1205,540
1206,550
1207,546
1208,527
1209,519
1210,499
1211,490
1212,498
1213,501
1214,491
1215,480
1216,483
1217,492
1218,487
1219,481
1220,463
1221,455
1222,450
1223,440
1224,442
1225,451
1226,472
1227,482
1228,487
1229,499
1230,498
1231,501
1232,504
1233,503
1234,483
1235,453
1236,429
1237,417
1238,411
1239,405
1240,389
1241,389
1242,409
1243,444
1244,464
1245,469
1246,483
1247,495
1248,496
1249,508
1250,508
1251,515
1252,526
1253,528
1254,531
1255,516
1256,504
1257,489
1258,480
1259,496
1260,526
1261,548
1262,552
1263,538
1264,521
1265,512
1266,517
1267,519
1268,511
1269,505
1270,491
1271,489
1272,483
1273,471
1274,457
1275,434
1276,432
1277,444
1278,461
1279,477
1280,479
1281,499
1282,518
1283,534
1284,560
1285,578
1286,586
1287,579
1288,572
1289,558
1290,537
1291,531
1292,520
1293,502
1294,492
1295,471
1296,468
1297,489
1298,510
1299,531
1300,542
1301,536
1302,527
1303,535
1304,539
1305,533
1306,515
1307,502
1308,508
1309,512
1310,507
1311,502
1312,506
1313,511
1314,511
1315,513
1316,538
1317,572
1318,588
1319,607
1320,599
1321,596
1322,591
1323,571
1324,561
1325,531
1326,514
1327,501
1328,490
1329,494
1330,494
1331,500
1332,508
1333,515
1334,530
1335,535
1336,540
1337,552
1338,553
1339,550
1340,532
1341,530
1342,528
1343,527
1344,528
1345,520
1346,517
1347,512
1348,514
1349,520
1350,515
1351,513
1352,505
1353,504
1354,520
1355,520
1356,515
1357,529
1358,519
1359,526
1360,535
1361,532
1362,526
1363,512
1364,510
1365,500
1366,499
1367,500
1368,487
1369,483
1370,480
1371,502
1372,515
1373,506
1374,510
1375,499
1376,485
1377,463
1378,447
1379,449
1380,458
1381,477
1382,497
1383,510
1384,518
1385,509
1386,502
1387,500
1388,499
1389,503
1390,505
1391,507
1392,510
1393,521
1394,541
1395,551
1396,564
1397,574
1398,545
1399,526
1400,499
1401,497
1402,508
1403,522
1404,545
1405,537
1406,545
1407,536
1408,516
1409,506
1410,486
1411,483
1412,483
1413,487
1414,502
1415,516
1416,530
1417,543
1418,550
1419,540
1420,523
1421,521
1422,524
1423,533
1424,542
1425,551
1426,556
1427,557
1428,534
1429,511
1430,484
1431,476
1432,482
1433,468
1434,470
1435,474
1436,487
1437,501
1438,504
1439,510
1440,496
1441,492
1442,483
1443,469
1444,466
1445,463
1446,470
1447,470
1448,478
1449,501
1450,515
1451,525
1452,531
1453,532
1454,527
1455,508
1456,507
1457,515
1458,516
1459,520
1460,514
1461,514
1462,512
1463,510
1464,522
1465,522
1466,526
1467,528
1468,531
1469,525
1470,506
1471,495
1472,485
1473,496
1474,493
1475,471
1476,451
1477,456
1478,483
1479,514
1480,527
1481,535
1482,540
1483,531
1484,511
1485,482
1486,481
1487,481
1488,467
1489,473
1490,491
1491,512
1492,521
1493,506
1494,495
1495,483
1496,480
1497,476
1498,470
1499,483
1500,501
1501,517
1502,530
1503,527
1504,528
1505,524
1506,519
1507,512
1508,500
1509,504
1510,499
1511,513
1512,521
1513,524
1514,532
1515,526
1516,521
1517,527
1518,513
1519,503
1520,483
1521,480
1522,494
1523,504
1524,508
1525,511
1526,519
1527,504
1528,490
1529,475
1530,466
1531,477
1532,500
1533,521
1534,542
1535,543
1536,551
1537,550
1538,544
1539,540
1540,537
1541,549
1542,559
1543,563
1544,560
1545,552
1546,551
1547,549
1548,533
1549,498
1550,464
1551,461
1552,477
1553,494
1554,517
1555,517
1556,520
1557,516
1558,511
1559,514
1560,517
1561,528
1562,540
1563,558
1564,577
1565,573
1566,572
1567,557
1568,540
1569,539
1570,521
1571,525
1572,540
1573,553
1574,560
1575,554
1576,550
1577,548
1578,551
1579,549
1580,540
1581,549
1582,545
1583,531
1584,519
1585,501
1586,488
1587,476
1588,472
1589,475
1590,470
1591,479
1592,499
1593,516
1594,519
1595,497
1596,484
1597,484
1598,484
1599,500
1600,507
1601,517
1602,536
1603,542
1604,551
1605,543
1606,538
1607,527
1608,515
1609,512
1610,508
1611,518
1612,522
1613,521
1614,524
1615,519
1616,529
1617,541
1618,543
1619,533
1620,525
1621,531
1622,541
1623,507
1624,479
1625,452
1626,448
1627,450
1628,447
1629,439
1630,422
1631,423
1632,416
1633,393
1634,384
1635,382
1636,416
1637,452
1638,479
1639,497
1640,492
1641,492
1642,498
1643,499
1644,504
1645,489
1646,482
1647,481
1648,478
1649,479
1650,476
1651,480
1652,480
1653,489
1654,499
1655,496
1656,503
1657,498
1658,491
1659,492
1660,480
1661,480
1662,481
1663,487
1664,491
1665,491
1666,495
1667,506
1668,510
1669,512
1670,516
1671,522
1672,538
1673,559
1674,560
1675,545
1676,529
1677,518
1678,525
1679,512
1680,494
1681,484
1682,478
1683,490
1684,505
1685,519
1686,515
1687,520
1688,536
1689,552
1690,558
1691,564
1692,568
1693,551
1694,546
1695,541
1696,541
1697,546
1698,547
1699,532
1700,514
1701,501
1702,492
1703,483
1704,485
1705,479
1706,472
1707,456
1708,435
1709,427
1710,420
1711,432
1712,448
1713,465
1714,479
1715,491
1716,491
1717,491
1718,510
1719,516
1720,519
1721,512
1722,497
1723,499
1724,513
1725,529
1726,532
1727,511
1728,491
1729,463
1730,429
1731,410
1732,412
1733,423
1734,442
1735,450
1736,457
1737,470
1738,475
1739,486
1740,499
1741,523
1742,538
1743,537
1744,532
1745,516
1746,508
1747,503
1748,506
1749,519
1750,523
1751,530
1752,541
1753,546
1754,554
1755,544
1756,534
1757,529
1758,522
1759,526
1760,527
1761,527
1762,524
1763,519
1764,524
1765,515
1766,514
1767,518
1768,521
1769,521
1770,502
1771,500
1772,510
1773,508
1774,519
1775,524
1776,529
1777,524
1778,516
1779,496
1780,467
1781,469
1782,480
1783,484
1784,482
1785,473
1786,478
1787,485
1788,487
1789,502
1790,510
1791,527
1792,549
1793,555
1794,555
1795,560
1796,558
1797,546
1798,541
1799,533
1800,513
1801,507
1802,512
1803,526
1804,541
1805,543
1806,535
1807,534
1808,546
1809,547
1810,545
1811,545
1812,542
1813,521
1814,487
1815,458
1816,448
1817,460
1818,469
1819,485
1820,495
1821,519
1822,537
1823,545
1824,556
1825,550
1826,543
1827,542
1828,546
1829,548
1830,515
1831,499
1832,503
1833,496
1834,493
1835,474
1836,465
1837,462
1838,467
1839,470
1840,469
1841,472
1842,480
1843,480
1844,487
1845,486
1846,492
1847,505
1848,510
1849,519
1850,526
1851,531
1852,503
1853,474
1854,455
1855,451
1856,463
1857,482
1858,493
1859,479
1860,450
1861,457
1862,489
1863,509
1864,519
1865,515
1866,517
1867,530
1868,544
1869,556
1870,544
1871,530
1872,520
1873,512
1874,515
1875,523
1876,529
1877,540
1878,547
1879,558
1880,554
1881,552
1882,545
1883,522
1884,507
1885,492
1886,495
1887,500
1888,489
1889,486
1890,494
1891,513
1892,525
1893,524
1894,519
1895,500
1896,483
1897,454
1898,414
1899,396
1900,391
1901,409
1902,439
1903,475
1904,499
1905,521
1906,537
1907,540
1908,525
1909,510
1910,503
1911,513
1912,523
1913,517
1914,509
1915,497
1916,496
1917,494
1918,485
1919,487
1920,492
1921,504
1922,513
1923,525
1924,530
1925,515
1926,510
1927,502
1928,497
1929,504
1930,508
1931,520
1932,530
1933,531
1934,533
1935,522
1936,512
1937,508
1938,499
1939,506
1940,511
1941,518
1942,496
1943,461
1944,448
1945,446
1946,470
1947,504
1948,523
1949,547
1950,556
1951,581
1952,575
1953,582
1954,583
1955,568
1956,568
1957,558
1958,540
1959,532
1960,515
1961,515
1962,513
1963,521
1964,519
1965,497
1966,493
1967,495
1968,506
1969,514
1970,522
1971,530
1972,539
1973,541
1974,533
1975,516
1976,499
1977,481
1978,490
1979,491
1980,476
1981,470
1982,472
1983,489
1984,512
1985,522
1986,530
1987,536
1988,541
1989,533
1990,518
1991,513
1992,509
1993,512
1994,526
1995,503
1996,475
1997,465
1998,457
1999,462
