# OpenSignals Text File Format. Version 1
# {"98:D3:61:FD:78:31": {"position": 0, "device": "bitalino_rev", "device name": "98:D3:61:FD:78:31", "device connection": "BTH98:D3:61:FD:78:31", "sampling rate": 1000, "resolution": [4, 1, 1, 1, 1, 10, 10, 10, 10, 6, 6], "firmware version": 1282, "comments": "", "keywords": "", "mode": 0, "sync interval": 2, "date": "2024-4-12", "time": "12:39:48.51", "channels": [1, 2, 3, 4, 5, 6], "sensor": ["RAW", "RAW", "RAW", "RAW", "RAW", "RAW"], "label": ["A1", "A2", "A3", "A4", "A5", "A6"], "column": ["nSeq", "I1", "I2", "O1", "O2", "A1", "A2", "A3", "A4", "A5", "A6"], "special": [{}, {}, {}, {}, {}, {}], "digital IO": [0, 0, 1, 1]}}
# EndOfHeader
0	0	0	0	0	510	512	0	539	38	38	
1	0	0	0	0	511	512	0	498	38	38	
2	0	0	0	0	509	510	0	441	38	38	
3	0	0	0	0	510	509	0	387	38	36	
4	0	0	0	0	511	509	0	331	38	36	
5	0	0	0	0	508	508	0	272	38	36	
6	0	0	0	0	507	508	0	227	38	37	
7	0	0	0	0	506	508	0	173	38	37	
8	0	0	0	0	510	506	0	152	38	38	
9	0	0	0	0	508	507	0	135	38	38	
10	0	0	0	0	509	507	0	132	38	38	
11	0	0	0	0	509	507	0	133	38	37	
12	0	0	0	0	509	507	0	118	38	36	
13	0	0	0	0	510	507	0	124	38	36	
14	0	0	0	0	511	507	0	139	38	36	
15	0	0	0	0	509	507	0	161	38	37	
0	0	0	0	0	507	508	0	166	38	38	
1	0	0	0	0	509	508	0	180	38	38	
2	0	0	0	0	508	510	0	192	38	38	
3	0	0	0	0	510	509	0	207	38	37	
4	0	0	0	0	510	508	0	201	38	36	
5	0	0	0	0	509	509	0	181	38	36	
6	0	0	0	0	508	509	0	166	38	36	
7	0	0	0	0	510	509	0	165	39	37	
8	0	0	0	0	511	510	0	180	38	38	
9	0	0	0	0	510	509	0	202	38	38	
10	0	0	0	0	511	506	0	214	38	38	
11	0	0	0	0	507	507	0	216	38	37	
12	0	0	0	0	510	507	0	227	38	36	
13	0	0	0	0	510	508	0	232	38	36	
14	0	0	0	0	509	507	0	225	38	36	
15	0	0	0	0	509	507	0	203	39	37	
0	0	0	0	0	510	508	0	190	38	38	
1	0	0	0	0	507	509	0	183	38	38	
2	0	0	0	0	508	508	0	176	38	38	
3	0	0	0	0	508	507	0	185	38	38	
4	0	0	0	0	510	507	0	189	38	37	
5	0	0	0	0	507	507	0	203	38	36	
6	0	0	0	0	510	508	0	209	38	36	
7	0	0	0	0	510	508	0	228	39	36	
8	0	0	0	0	509	508	0	240	38	37	
9	0	0	0	0	508	509	0	232	38	38	
10	0	0	0	0	511	508	0	219	38	38	
11	0	0	0	0	509	509	0	219	38	38	
12	0	0	0	0	509	509	0	215	38	37	
13	0	0	0	0	506	509	0	223	38	36	
14	0	0	0	0	510	510	0	233	38	36	
15	0	0	0	0	510	510	0	227	39	36	
0	0	0	0	0	508	509	0	246	38	37	
1	0	0	0	0	507	509	0	271	38	38	
2	0	0	0	0	509	509	0	292	38	38	
3	0	0	0	0	509	509	0	315	38	38	
4	0	0	0	0	508	509	0	331	38	37	
5	0	0	0	0	509	510	0	335	38	36	
6	0	0	0	0	513	509	0	339	38	36	
7	0	0	0	0	512	509	0	328	38	36	
8	0	0	0	0	513	510	0	332	38	37	
9	0	0	0	0	511	509	0	327	38	38	
10	0	0	0	0	509	508	0	331	38	38	
11	0	0	0	0	507	508	0	330	38	38	
12	0	0	0	0	507	507	0	321	38	38	
13	0	0	0	0	506	508	0	333	38	37	
14	0	0	0	0	505	507	0	343	38	36	
15	0	0	0	0	507	507	0	359	38	36	
0	0	0	0	0	510	507	0	370	38	36	
1	0	0	0	0	511	508	0	383	38	37	
2	0	0	0	0	509	508	0	389	38	38	
3	0	0	0	0	507	509	0	380	38	38	
4	0	0	0	0	505	509	0	375	38	38	
5	0	0	0	0	510	508	0	377	38	37	
6	0	0	0	0	507	511	0	375	38	36	
7	0	0	0	0	508	511	0	366	39	36	
8	0	0	0	0	510	511	0	357	38	36	
9	0	0	0	0	508	511	0	356	38	37	
10	0	0	0	0	506	510	0	354	38	38	
11	0	0	0	0	508	510	0	364	38	38	
12	0	0	0	0	508	510	0	364	38	38	
13	0	0	0	0	510	509	0	362	38	37	
14	0	0	0	0	508	509	0	352	38	36	
15	0	0	0	0	509	507	0	331	38	36	
0	0	0	0	0	510	506	0	316	38	36	
1	0	0	0	0	512	506	0	307	38	37	
2	0	0	0	0	511	505	0	288	38	38	
3	0	0	0	0	511	507	0	276	38	38	
4	0	0	0	0	508	506	0	277	38	38	
5	0	0	0	0	505	506	0	267	38	38	
6	0	0	0	0	504	506	0	270	38	37	
7	0	0	0	0	504	506	0	281	39	36	
8	0	0	0	0	500	505	0	290	38	36	
9	0	0	0	0	489	504	0	305	38	37	
10	0	0	0	0	489	507	0	320	38	37	
11	0	0	0	0	511	507	0	334	38	38	
12	0	0	0	0	540	506	0	351	38	38	
13	0	0	0	0	544	507	0	360	38	38	
14	0	0	0	0	530	507	0	354	38	37	
15	0	0	0	0	508	507	0	352	39	36	
0	0	0	0	0	494	505	0	364	38	36	
1	0	0	0	0	495	505	0	383	38	36	
2	0	0	0	0	502	504	0	404	38	37	
3	0	0	0	0	505	504	0	413	38	38	
4	0	0	0	0	506	504	0	427	38	38	
5	0	0	0	0	508	505	0	431	38	38	
6	0	0	0	0	509	505	0	425	38	37	
7	0	0	0	0	508	506	0	409	39	36	
8	0	0	0	0	509	506	0	397	38	36	
9	0	0	0	0	509	506	0	386	38	36	
10	0	0	0	0	509	507	0	386	38	37	
11	0	0	0	0	509	508	0	376	38	38	
12	0	0	0	0	508	509	0	362	38	38	
13	0	0	0	0	508	510	0	354	38	38	
14	0	0	0	0	505	509	0	354	38	38	
15	0	0	0	0	504	507	0	357	39	37	
0	0	0	0	0	504	507	0	356	38	36	
1	0	0	0	0	502	508	0	354	38	36	
2	0	0	0	0	507	508	0	371	38	37	
3	0	0	0	0	514	508	0	390	38	37	
4	0	0	0	0	519	509	0	396	38	38	
5	0	0	0	0	515	508	0	390	38	38	
6	0	0	0	0	513	508	0	387	38	38	
7	0	0	0	0	510	508	0	396	39	37	
8	0	0	0	0	506	507	0	403	38	36	
9	0	0	0	0	508	508	0	411	38	36	
10	0	0	0	0	507	509	0	413	38	36	
11	0	0	0	0	509	510	0	409	38	37	
12	0	0	0	0	509	510	0	399	38	38	
13	0	0	0	0	509	508	0	403	38	38	
14	0	0	0	0	507	509	0	390	38	38	
15	0	0	0	0	508	509	0	376	39	37	
0	0	0	0	0	509	509	0	389	38	36	
1	0	0	0	0	508	508	0	412	38	36	
2	0	0	0	0	510	508	0	428	38	36	
3	0	0	0	0	509	508	0	444	38	37	
4	0	0	0	0	508	508	0	458	38	38	
5	0	0	0	0	508	509	0	477	38	38	
6	0	0	0	0	509	508	0	488	38	38	
7	0	0	0	0	508	508	0	501	39	38	
8	0	0	0	0	509	507	0	521	38	37	
9	0	0	0	0	509	507	0	538	38	36	
10	0	0	0	0	508	506	0	543	38	36	
11	0	0	0	0	510	507	0	539	38	37	
12	0	0	0	0	508	508	0	526	38	37	
13	0	0	0	0	508	508	0	526	38	38	
14	0	0	0	0	510	507	0	528	38	38	
15	0	0	0	0	510	505	0	527	39	38	
0	0	0	0	0	509	505	0	524	38	37	
1	0	0	0	0	509	505	0	519	38	36	
2	0	0	0	0	508	503	0	537	38	36	
3	0	0	0	0	509	504	0	557	38	36	
4	0	0	0	0	509	504	0	584	38	37	
5	0	0	0	0	508	505	0	593	38	38	
6	0	0	0	0	510	507	0	588	38	38	
7	0	0	0	0	509	508	0	575	39	38	
8	0	0	0	0	508	508	0	559	38	37	
9	0	0	0	0	510	508	0	551	38	36	
10	0	0	0	0	508	510	0	553	38	36	
11	0	0	0	0	510	509	0	546	38	36	
12	0	0	0	0	507	508	0	536	38	37	
13	0	0	0	0	508	507	0	508	38	38	
14	0	0	0	0	509	508	0	486	38	38	
15	0	0	0	0	510	508	0	468	39	38	
0	0	0	0	0	507	509	0	478	38	38	
1	0	0	0	0	505	508	0	451	38	37	
2	0	0	0	0	504	507	0	430	38	36	
3	0	0	0	0	507	506	0	412	38	36	
4	0	0	0	0	509	508	0	399	38	37	
5	0	0	0	0	510	506	0	406	38	37	
6	0	0	0	0	511	508	0	403	38	38	
7	0	0	0	0	508	508	0	407	39	38	
8	0	0	0	0	507	507	0	429	38	38	
9	0	0	0	0	508	508	0	459	38	37	
10	0	0	0	0	509	510	0	481	38	36	
11	0	0	0	0	510	508	0	492	38	36	
12	0	0	0	0	507	507	0	492	38	36	
13	0	0	0	0	506	506	0	499	38	37	
14	0	0	0	0	503	505	0	505	38	38	
15	0	0	0	0	495	505	0	507	39	38	
0	0	0	0	0	499	507	0	498	38	38	
1	0	0	0	0	513	508	0	478	38	37	
2	0	0	0	0	530	509	0	469	38	36	
3	0	0	0	0	531	509	0	472	38	36	
4	0	0	0	0	521	510	0	488	38	36	
5	0	0	0	0	502	511	0	494	38	37	
6	0	0	0	0	500	511	0	499	38	38	
7	0	0	0	0	503	509	0	499	38	38	
8	0	0	0	0	507	508	0	490	38	38	
9	0	0	0	0	507	510	0	481	38	38	
10	0	0	0	0	506	509	0	466	38	36	
11	0	0	0	0	508	509	0	459	38	36	
12	0	0	0	0	507	509	0	462	38	36	
13	0	0	0	0	511	510	0	494	38	37	
14	0	0	0	0	510	510	0	526	38	38	
15	0	0	0	0	508	510	0	527	39	38	
0	0	0	0	0	509	509	0	513	38	38	
1	0	0	0	0	511	509	0	488	38	38	
2	0	0	0	0	512	508	0	460	38	37	
3	0	0	0	0	510	506	0	440	38	36	
4	0	0	0	0	510	505	0	436	38	36	
5	0	0	0	0	508	505	0	446	38	36	
6	0	0	0	0	510	505	0	453	38	37	
7	0	0	0	0	509	507	0	442	39	38	
8	0	0	0	0	510	506	0	441	38	38	
9	0	0	0	0	509	506	0	443	38	38	
10	0	0	0	0	510	507	0	460	38	37	
11	0	0	0	0	511	507	0	480	38	36	
12	0	0	0	0	508	507	0	494	38	36	
13	0	0	0	0	509	508	0	502	38	36	
14	0	0	0	0	510	508	0	510	38	37	
15	0	0	0	0	509	509	0	523	39	38	
0	0	0	0	0	508	509	0	535	38	38	
1	0	0	0	0	508	509	0	535	38	38	
2	0	0	0	0	507	508	0	521	38	38	
3	0	0	0	0	509	507	0	516	38	36	
4	0	0	0	0	509	508	0	517	38	36	
5	0	0	0	0	510	508	0	527	38	36	
6	0	0	0	0	510	509	0	519	38	37	
7	0	0	0	0	507	510	0	515	39	38	
8	0	0	0	0	508	507	0	509	38	38	
9	0	0	0	0	508	506	0	500	38	39	
10	0	0	0	0	507	507	0	509	38	38	
11	0	0	0	0	508	507	0	523	38	37	
12	0	0	0	0	509	506	0	524	38	36	
13	0	0	0	0	510	508	0	517	38	36	
14	0	0	0	0	509	506	0	510	38	37	
15	0	0	0	0	510	507	0	519	39	37	
0	0	0	0	0	509	508	0	542	38	38	
1	0	0	0	0	510	508	0	551	38	39	
2	0	0	0	0	509	508	0	551	38	38	
3	0	0	0	0	508	506	0	544	38	37	
4	0	0	0	0	509	505	0	544	38	36	
5	0	0	0	0	510	504	0	549	38	36	
6	0	0	0	0	507	504	0	561	38	36	
7	0	0	0	0	508	505	0	565	39	37	
8	0	0	0	0	507	504	0	564	38	38	
9	0	0	0	0	508	504	0	572	38	39	
10	0	0	0	0	511	505	0	588	38	39	
11	0	0	0	0	510	504	0	612	38	38	
12	0	0	0	0	510	505	0	623	38	37	
13	0	0	0	0	511	504	0	626	38	36	
14	0	0	0	0	509	505	0	635	38	36	
15	0	0	0	0	510	505	0	637	39	37	
0	0	0	0	0	509	506	0	643	38	38	
1	0	0	0	0	510	507	0	631	38	38	
2	0	0	0	0	510	507	0	616	38	39	
3	0	0	0	0	511	506	0	607	38	38	
4	0	0	0	0	508	507	0	598	38	37	
5	0	0	0	0	508	506	0	579	38	36	
6	0	0	0	0	509	505	0	579	38	36	
7	0	0	0	0	511	505	0	576	39	37	
8	0	0	0	0	508	503	0	575	38	38	
9	0	0	0	0	509	504	0	574	38	38	
10	0	0	0	0	509	504	0	569	38	39	
11	0	0	0	0	508	502	0	571	38	38	
12	0	0	0	0	511	503	0	587	38	37	
13	0	0	0	0	507	505	0	609	38	36	
14	0	0	0	0	507	509	0	620	38	36	
15	0	0	0	0	508	508	0	618	39	36	
0	0	0	0	0	508	507	0	620	38	37	
1	0	0	0	0	512	507	0	621	38	38	
2	0	0	0	0	510	507	0	626	38	39	
3	0	0	0	0	511	507	0	612	38	39	
4	0	0	0	0	508	505	0	607	38	38	
5	0	0	0	0	508	506	0	606	38	37	
6	0	0	0	0	508	507	0	596	38	36	
7	0	0	0	0	509	508	0	588	39	36	
8	0	0	0	0	510	506	0	584	38	37	
9	0	0	0	0	510	507	0	573	38	38	
10	0	0	0	0	511	507	0	557	38	39	
11	0	0	0	0	510	508	0	543	38	39	
12	0	0	0	0	509	508	0	541	38	38	
13	0	0	0	0	510	508	0	548	38	37	
14	0	0	0	0	510	508	0	556	38	36	
15	0	0	0	0	509	509	0	557	39	36	
0	0	0	0	0	508	507	0	559	38	37	
1	0	0	0	0	509	507	0	572	38	38	
2	0	0	0	0	508	508	0	595	38	38	
3	0	0	0	0	509	508	0	606	38	39	
4	0	0	0	0	508	508	0	608	38	38	
5	0	0	0	0	510	508	0	607	38	37	
6	0	0	0	0	510	509	0	597	38	36	
7	0	0	0	0	510	508	0	595	39	36	
8	0	0	0	0	508	508	0	599	38	37	
9	0	0	0	0	511	508	0	590	38	37	
10	0	0	0	0	510	508	0	584	38	38	
11	0	0	0	0	508	509	0	586	38	39	
12	0	0	0	0	510	510	0	590	38	39	
13	0	0	0	0	507	509	0	598	38	38	
14	0	0	0	0	508	509	0	592	38	37	
15	0	0	0	0	508	509	0	572	39	36	
0	0	0	0	0	508	508	0	556	38	36	
1	0	0	0	0	510	509	0	568	38	37	
2	0	0	0	0	509	510	0	583	38	38	
3	0	0	0	0	510	510	0	577	38	39	
4	0	0	0	0	512	508	0	574	38	39	
5	0	0	0	0	508	508	0	572	38	38	
6	0	0	0	0	508	508	0	575	38	37	
7	0	0	0	0	509	508	0	572	39	36	
8	0	0	0	0	509	509	0	548	38	36	
9	0	0	0	0	509	508	0	532	38	37	
10	0	0	0	0	508	508	0	522	38	38	
11	0	0	0	0	509	508	0	526	38	39	
12	0	0	0	0	506	508	0	536	38	39	
13	0	0	0	0	509	509	0	542	38	38	
14	0	0	0	0	509	509	0	547	38	37	
15	0	0	0	0	509	510	0	551	39	36	
0	0	0	0	0	510	511	0	561	38	36	
1	0	0	0	0	511	509	0	573	38	37	
2	0	0	0	0	511	509	0	583	38	38	
3	0	0	0	0	510	507	0	590	38	38	
4	0	0	0	0	506	508	0	604	38	39	
5	0	0	0	0	505	509	0	624	38	39	
6	0	0	0	0	510	508	0	653	38	38	
7	0	0	0	0	513	509	0	657	39	37	
8	0	0	0	0	510	509	0	672	38	36	
9	0	0	0	0	509	509	0	689	38	36	
10	0	0	0	0	507	509	0	700	38	37	
11	0	0	0	0	508	508	0	686	38	38	
12	0	0	0	0	510	508	0	676	38	39	
13	0	0	0	0	508	508	0	661	38	39	
14	0	0	0	0	510	507	0	639	38	38	
15	0	0	0	0	508	509	0	619	39	37	
0	0	0	0	0	511	507	0	611	38	36	
1	0	0	0	0	510	507	0	615	38	36	
2	0	0	0	0	506	506	0	614	38	37	
3	0	0	0	0	507	507	0	620	38	38	
4	0	0	0	0	509	506	0	625	38	39	
5	0	0	0	0	510	505	0	619	38	39	
6	0	0	0	0	510	508	0	601	38	39	
7	0	0	0	0	509	507	0	569	39	38	
8	0	0	0	0	508	508	0	553	38	36	
9	0	0	0	0	508	508	0	543	38	36	
10	0	0	0	0	508	508	0	536	38	37	
11	0	0	0	0	508	508	0	520	38	38	
12	0	0	0	0	506	509	0	513	38	39	
13	0	0	0	0	509	509	0	508	38	39	
14	0	0	0	0	511	509	0	521	38	39	
15	0	0	0	0	508	508	0	536	39	38	
0	0	0	0	0	510	509	0	540	38	37	
1	0	0	0	0	509	508	0	539	38	36	
2	0	0	0	0	509	508	0	546	38	37	
3	0	0	0	0	510	508	0	563	38	38	
4	0	0	0	0	508	508	0	582	38	38	
5	0	0	0	0	509	509	0	582	38	39	
6	0	0	0	0	509	508	0	567	38	39	
7	0	0	0	0	508	507	0	564	39	38	
8	0	0	0	0	508	507	0	568	38	37	
9	0	0	0	0	507	508	0	579	38	36	
10	0	0	0	0	508	507	0	580	38	36	
11	0	0	0	0	509	508	0	566	38	37	
12	0	0	0	0	509	508	0	553	38	38	
13	0	0	0	0	519	508	0	545	38	39	
14	0	0	0	0	520	508	0	531	38	39	
15	0	0	0	0	518	508	0	526	39	39	
0	0	0	0	0	515	509	0	523	38	38	
1	0	0	0	0	514	508	0	526	38	37	
2	0	0	0	0	512	507	0	534	38	36	
3	0	0	0	0	511	507	0	540	38	37	
4	0	0	0	0	508	508	0	532	38	38	
5	0	0	0	0	509	508	0	521	38	39	
6	0	0	0	0	508	509	0	539	38	39	
7	0	0	0	0	508	509	0	570	39	39	
8	0	0	0	0	508	509	0	587	38	38	
9	0	0	0	0	506	509	0	569	38	37	
10	0	0	0	0	507	508	0	540	38	36	
11	0	0	0	0	505	508	0	537	38	37	
12	0	0	0	0	504	508	0	525	38	38	
13	0	0	0	0	507	508	0	518	38	39	
14	0	0	0	0	508	508	0	517	38	39	
15	0	0	0	0	508	508	0	515	39	39	
0	0	0	0	0	509	510	0	510	38	39	
1	0	0	0	0	508	511	0	517	38	37	
2	0	0	0	0	507	512	0	525	38	36	
3	0	0	0	0	508	510	0	542	38	37	
4	0	0	0	0	510	509	0	544	38	38	
5	0	0	0	0	510	507	0	548	38	38	
6	0	0	0	0	508	508	0	555	38	39	
7	0	0	0	0	509	508	0	555	39	39	
8	0	0	0	0	510	508	0	555	38	39	
9	0	0	0	0	509	508	0	557	38	38	
10	0	0	0	0	508	509	0	562	38	37	
11	0	0	0	0	510	510	0	562	38	36	
12	0	0	0	0	508	511	0	573	38	37	
13	0	0	0	0	507	510	0	568	38	38	
14	0	0	0	0	508	511	0	557	38	39	
15	0	0	0	0	510	511	0	548	39	39	
0	0	0	0	0	510	511	0	548	38	39	
1	0	0	0	0	510	511	0	535	38	38	
2	0	0	0	0	511	511	0	525	38	37	
3	0	0	0	0	511	512	0	526	38	36	
4	0	0	0	0	510	511	0	544	38	37	
5	0	0	0	0	511	511	0	556	38	38	
6	0	0	0	0	511	510	0	563	38	39	
7	0	0	0	0	508	508	0	577	39	39	
8	0	0	0	0	509	508	0	591	38	39	
9	0	0	0	0	508	507	0	591	38	39	
10	0	0	0	0	510	507	0	583	38	37	
11	0	0	0	0	510	508	0	592	38	37	
12	0	0	0	0	508	506	0	606	38	37	
13	0	0	0	0	508	507	0	620	38	38	
14	0	0	0	0	507	507	0	633	38	39	
15	0	0	0	0	509	508	0	639	39	39	
0	0	0	0	0	511	508	0	636	38	40	
1	0	0	0	0	510	510	0	639	38	39	
2	0	0	0	0	512	509	0	618	38	38	
3	0	0	0	0	509	508	0	601	38	37	
4	0	0	0	0	509	510	0	591	38	37	
5	0	0	0	0	508	510	0	568	38	37	
6	0	0	0	0	507	510	0	548	38	38	
7	0	0	0	0	509	510	0	534	39	39	
8	0	0	0	0	509	510	0	536	38	40	
9	0	0	0	0	510	510	0	530	38	39	
10	0	0	0	0	511	509	0	540	38	38	
11	0	0	0	0	508	509	0	551	38	37	
12	0	0	0	0	508	507	0	543	38	37	
13	0	0	0	0	509	506	0	525	38	37	
14	0	0	0	0	509	507	0	522	38	38	
15	0	0	0	0	509	507	0	532	39	39	
0	0	0	0	0	510	507	0	527	38	40	
1	0	0	0	0	510	507	0	517	38	39	
2	0	0	0	0	511	508	0	521	38	39	
3	0	0	0	0	508	508	0	527	38	37	
4	0	0	0	0	509	508	0	528	38	37	
5	0	0	0	0	510	508	0	523	38	37	
6	0	0	0	0	510	509	0	512	38	38	
7	0	0	0	0	509	508	0	504	39	39	
8	0	0	0	0	508	509	0	503	38	39	
9	0	0	0	0	509	509	0	531	38	40	
10	0	0	0	0	509	509	0	528	38	39	
11	0	0	0	0	508	510	0	534	38	38	
12	0	0	0	0	509	510	0	550	38	37	
13	0	0	0	0	510	511	0	564	38	37	
14	0	0	0	0	511	511	0	568	38	38	
15	0	0	0	0	510	510	0	544	38	39	
0	0	0	0	0	509	509	0	516	38	39	
1	0	0	0	0	510	508	0	504	38	40	
2	0	0	0	0	509	508	0	510	38	39	
3	0	0	0	0	509	508	0	534	38	38	
4	0	0	0	0	509	509	0	554	38	37	
5	0	0	0	0	508	508	0	566	38	37	
6	0	0	0	0	508	508	0	574	38	37	
7	0	0	0	0	509	507	0	577	38	38	
8	0	0	0	0	507	506	0	579	38	39	
9	0	0	0	0	509	506	0	575	38	40	
10	0	0	0	0	508	507	0	560	38	40	
11	0	0	0	0	509	507	0	559	38	39	
12	0	0	0	0	509	507	0	541	38	38	
13	0	0	0	0	509	507	0	527	38	37	
14	0	0	0	0	510	508	0	512	38	37	
15	0	0	0	0	508	508	0	494	39	38	
0	0	0	0	0	510	508	0	492	38	39	
1	0	0	0	0	508	508	0	507	38	40	
2	0	0	0	0	509	504	0	521	38	40	
3	0	0	0	0	511	505	0	527	38	39	
4	0	0	0	0	509	506	0	529	38	38	
5	0	0	0	0	509	506	0	536	38	37	
6	0	0	0	0	508	508	0	553	38	37	
7	0	0	0	0	509	508	0	567	39	38	
8	0	0	0	0	510	508	0	559	38	39	
9	0	0	0	0	508	508	0	563	38	39	
10	0	0	0	0	509	508	0	573	38	40	
11	0	0	0	0	510	507	0	582	38	39	
12	0	0	0	0	512	507	0	595	38	38	
13	0	0	0	0	510	508	0	589	38	37	
14	0	0	0	0	509	508	0	583	38	37	
15	0	0	0	0	509	507	0	587	39	37	
0	0	0	0	0	508	507	0	587	38	38	
1	0	0	0	0	511	507	0	596	38	39	
2	0	0	0	0	508	506	0	601	38	40	
3	0	0	0	0	511	506	0	596	38	40	
4	0	0	0	0	509	506	0	589	38	39	
5	0	0	0	0	511	508	0	582	38	38	
6	0	0	0	0	511	508	0	561	38	37	
7	0	0	0	0	508	508	0	530	39	37	
8	0	0	0	0	510	506	0	514	38	38	
9	0	0	0	0	508	507	0	511	38	39	
10	0	0	0	0	511	508	0	510	38	40	
11	0	0	0	0	509	506	0	514	38	40	
12	0	0	0	0	510	506	0	513	38	39	
13	0	0	0	0	508	507	0	515	38	38	
14	0	0	0	0	508	508	0	521	38	37	
15	0	0	0	0	510	507	0	534	38	37	
0	0	0	0	0	509	508	0	540	38	38	
1	0	0	0	0	510	508	0	539	38	39	
2	0	0	0	0	509	508	0	530	38	40	
3	0	0	0	0	508	506	0	532	38	40	
4	0	0	0	0	508	506	0	547	38	40	
5	0	0	0	0	508	508	0	551	38	38	
6	0	0	0	0	511	508	0	550	38	37	
7	0	0	0	0	510	508	0	536	39	37	
8	0	0	0	0	510	508	0	543	38	38	
9	0	0	0	0	511	508	0	566	38	39	
10	0	0	0	0	510	508	0	584	38	39	
11	0	0	0	0	510	508	0	608	38	40	
12	0	0	0	0	509	508	0	606	38	40	
13	0	0	0	0	508	507	0	588	38	39	
14	0	0	0	0	509	505	0	565	38	38	
15	0	0	0	0	510	506	0	552	39	37	
0	0	0	0	0	509	508	0	534	38	37	
1	0	0	0	0	510	508	0	518	38	38	
2	0	0	0	0	509	507	0	501	38	39	
3	0	0	0	0	507	509	0	505	38	40	
4	0	0	0	0	507	509	0	510	38	40	
5	0	0	0	0	509	508	0	516	38	39	
6	0	0	0	0	506	508	0	515	38	38	
7	0	0	0	0	508	510	0	525	39	37	
8	0	0	0	0	510	510	0	551	38	37	
9	0	0	0	0	510	508	0	564	38	38	
10	0	0	0	0	510	507	0	572	38	39	
11	0	0	0	0	510	508	0	574	38	40	
12	0	0	0	0	510	509	0	599	38	40	
13	0	0	0	0	511	509	0	618	38	40	
14	0	0	0	0	507	510	0	623	38	39	
15	0	0	0	0	507	510	0	634	39	37	
0	0	0	0	0	510	510	0	636	38	37	
1	0	0	0	0	509	510	0	643	38	38	
2	0	0	0	0	511	510	0	639	38	39	
3	0	0	0	0	510	511	0	638	38	40	
4	0	0	0	0	512	510	0	652	38	40	
5	0	0	0	0	508	508	0	657	38	40	
6	0	0	0	0	510	507	0	654	38	39	
7	0	0	0	0	511	508	0	655	39	38	
8	0	0	0	0	508	507	0	667	38	37	
9	0	0	0	0	508	508	0	664	38	38	
10	0	0	0	0	508	508	0	652	38	39	
11	0	0	0	0	511	508	0	647	38	39	
12	0	0	0	0	509	508	0	644	38	40	
13	0	0	0	0	508	508	0	647	38	40	
14	0	0	0	0	508	508	0	628	38	40	
15	0	0	0	0	507	508	0	614	39	38	
0	0	0	0	0	508	508	0	607	38	37	
1	0	0	0	0	508	509	0	598	38	37	
2	0	0	0	0	509	508	0	577	38	38	
3	0	0	0	0	511	508	0	558	38	39	
4	0	0	0	0	507	509	0	545	38	40	
5	0	0	0	0	509	509	0	540	38	40	
6	0	0	0	0	509	510	0	537	38	40	
7	0	0	0	0	508	508	0	529	39	39	
8	0	0	0	0	508	509	0	524	38	38	
9	0	0	0	0	511	509	0	519	38	37	
10	0	0	0	0	509	508	0	517	38	38	
11	0	0	0	0	508	508	0	516	38	39	
12	0	0	0	0	511	507	0	518	38	40	
13	0	0	0	0	509	506	0	518	38	40	
14	0	0	0	0	508	506	0	531	38	40	
15	0	0	0	0	509	506	0	551	39	39	
0	0	0	0	0	510	506	0	563	38	38	
1	0	0	0	0	508	507	0	575	38	37	
2	0	0	0	0	509	508	0	588	38	38	
3	0	0	0	0	510	507	0	594	38	39	
4	0	0	0	0	511	504	0	596	38	40	
5	0	0	0	0	510	505	0	600	38	40	
6	0	0	0	0	508	504	0	605	38	40	
7	0	0	0	0	509	505	0	606	39	40	
8	0	0	0	0	508	507	0	608	38	38	
9	0	0	0	0	509	506	0	622	38	38	
10	0	0	0	0	510	507	0	628	38	38	
11	0	0	0	0	511	507	0	610	38	39	
12	0	0	0	0	511	506	0	579	38	40	
13	0	0	0	0	511	506	0	542	38	40	
14	0	0	0	0	507	506	0	502	38	41	
15	0	0	0	0	508	505	0	484	38	40	
0	0	0	0	0	508	506	0	478	38	39	
1	0	0	0	0	509	508	0	484	38	38	
2	0	0	0	0	508	507	0	488	38	38	
3	0	0	0	0	508	505	0	501	38	38	
4	0	0	0	0	511	503	0	513	38	39	
5	0	0	0	0	509	504	0	532	38	40	
6	0	0	0	0	508	504	0	530	38	41	
7	0	0	0	0	508	505	0	536	39	40	
8	0	0	0	0	511	506	0	535	38	39	
9	0	0	0	0	508	507	0	519	38	38	
10	0	0	0	0	508	508	0	504	38	38	
11	0	0	0	0	509	507	0	512	38	38	
12	0	0	0	0	509	507	0	525	38	39	
13	0	0	0	0	509	507	0	542	38	40	
14	0	0	0	0	510	508	0	556	38	41	
15	0	0	0	0	510	508	0	565	39	41	
0	0	0	0	0	508	507	0	567	38	40	
1	0	0	0	0	511	507	0	565	38	39	
2	0	0	0	0	510	508	0	565	38	38	
3	0	0	0	0	510	508	0	584	38	38	
4	0	0	0	0	510	510	0	596	38	39	
5	0	0	0	0	510	509	0	592	38	40	
6	0	0	0	0	509	508	0	580	38	40	
7	0	0	0	0	510	508	0	576	39	41	
8	0	0	0	0	511	510	0	574	38	40	
9	0	0	0	0	511	508	0	578	38	39	
10	0	0	0	0	512	509	0	584	38	38	
11	0	0	0	0	509	508	0	581	38	38	
12	0	0	0	0	511	507	0	571	38	38	
13	0	0	0	0	509	508	0	560	38	39	
14	0	0	0	0	508	508	0	546	38	40	
15	0	0	0	0	509	508	0	561	39	41	
0	0	0	0	0	510	508	0	561	38	40	
1	0	0	0	0	512	507	0	554	38	39	
2	0	0	0	0	510	506	0	545	38	38	
3	0	0	0	0	509	506	0	538	38	38	
4	0	0	0	0	508	506	0	542	38	38	
5	0	0	0	0	509	507	0	555	38	39	
6	0	0	0	0	511	508	0	553	38	40	
7	0	0	0	0	506	509	0	548	38	41	
8	0	0	0	0	507	508	0	541	38	41	
9	0	0	0	0	510	508	0	537	38	40	
10	0	0	0	0	510	508	0	529	38	39	
11	0	0	0	0	509	509	0	527	38	38	
12	0	0	0	0	511	508	0	533	38	38	
13	0	0	0	0	508	507	0	537	38	39	
14	0	0	0	0	510	508	0	543	38	40	
15	0	0	0	0	509	509	0	543	39	41	
0	0	0	0	0	508	510	0	546	38	41	
1	0	0	0	0	509	510	0	546	38	40	
2	0	0	0	0	509	511	0	539	38	39	
3	0	0	0	0	508	509	0	536	38	38	
4	0	0	0	0	509	509	0	527	38	38	
5	0	0	0	0	509	509	0	514	38	39	
6	0	0	0	0	509	510	0	510	38	40	
7	0	0	0	0	508	510	0	504	38	40	
8	0	0	0	0	510	510	0	495	38	41	
9	0	0	0	0	509	510	0	476	38	41	
10	0	0	0	0	510	510	0	472	38	40	
11	0	0	0	0	508	509	0	480	38	38	
12	0	0	0	0	509	508	0	492	38	38	
13	0	0	0	0	510	508	0	507	38	38	
14	0	0	0	0	510	507	0	514	38	39	
15	0	0	0	0	510	505	0	526	38	40	
0	0	0	0	0	511	507	0	533	38	41	
1	0	0	0	0	508	507	0	543	38	41	
2	0	0	0	0	509	507	0	551	38	40	
3	0	0	0	0	509	507	0	557	38	39	
4	0	0	0	0	508	508	0	566	38	38	
5	0	0	0	0	510	508	0	576	38	38	
6	0	0	0	0	511	507	0	582	38	39	
7	0	0	0	0	508	507	0	574	39	40	
8	0	0	0	0	508	506	0	559	38	41	
9	0	0	0	0	508	506	0	553	38	41	
10	0	0	0	0	509	507	0	560	38	40	
11	0	0	0	0	512	508	0	552	38	39	
12	0	0	0	0	508	508	0	554	38	38	
13	0	0	0	0	511	504	0	556	38	38	
14	0	0	0	0	508	505	0	551	38	39	
15	0	0	0	0	507	507	0	549	39	40	
0	0	0	0	0	509	508	0	540	38	41	
1	0	0	0	0	507	509	0	526	38	41	
2	0	0	0	0	509	507	0	510	38	41	
3	0	0	0	0	508	505	0	492	38	40	
4	0	0	0	0	509	505	0	491	38	38	
5	0	0	0	0	510	506	0	488	38	38	
6	0	0	0	0	508	507	0	477	38	39	
7	0	0	0	0	508	506	0	476	38	40	
8	0	0	0	0	508	506	0	484	38	40	
9	0	0	0	0	508	505	0	499	38	41	
10	0	0	0	0	506	505	0	505	38	41	
11	0	0	0	0	509	505	0	507	38	40	
12	0	0	0	0	511	505	0	506	38	39	
13	0	0	0	0	510	506	0	524	38	38	
14	0	0	0	0	509	504	0	538	38	38	
15	0	0	0	0	508	504	0	550	39	39	
0	0	0	0	0	508	507	0	540	38	40	
1	0	0	0	0	509	507	0	534	38	41	
2	0	0	0	0	508	506	0	531	38	41	
3	0	0	0	0	509	507	0	527	38	41	
4	0	0	0	0	507	507	0	531	38	39	
5	0	0	0	0	508	506	0	517	38	38	
6	0	0	0	0	509	506	0	505	38	38	
7	0	0	0	0	511	508	0	497	39	39	
8	0	0	0	0	509	508	0	478	38	40	
9	0	0	0	0	510	506	0	475	38	41	
10	0	0	0	0	509	506	0	465	38	41	
11	0	0	0	0	510	507	0	465	38	41	
12	0	0	0	0	512	508	0	467	38	40	
13	0	0	0	0	507	507	0	466	38	39	
14	0	0	0	0	511	508	0	478	38	38	
15	0	0	0	0	509	508	0	488	39	39	
0	0	0	0	0	510	508	0	502	38	40	
1	0	0	0	0	510	508	0	529	38	41	
2	0	0	0	0	511	507	0	556	38	41	
3	0	0	0	0	510	505	0	574	38	41	
4	0	0	0	0	508	507	0	575	38	40	
5	0	0	0	0	508	506	0	569	38	39	
6	0	0	0	0	508	507	0	559	38	38	
7	0	0	0	0	509	507	0	551	39	38	
8	0	0	0	0	509	507	0	542	38	40	
9	0	0	0	0	510	508	0	537	38	41	
10	0	0	0	0	508	508	0	530	38	41	
11	0	0	0	0	509	508	0	524	38	41	
12	0	0	0	0	510	508	0	531	38	41	
13	0	0	0	0	510	508	0	544	38	39	
14	0	0	0	0	511	508	0	556	38	38	
15	0	0	0	0	509	508	0	546	39	38	
0	0	0	0	0	508	508	0	527	38	39	
1	0	0	0	0	509	507	0	521	38	40	
2	0	0	0	0	510	506	0	525	38	41	
3	0	0	0	0	508	506	0	526	38	42	
4	0	0	0	0	508	506	0	529	38	41	
5	0	0	0	0	509	504	0	544	38	40	
6	0	0	0	0	508	504	0	561	38	39	
7	0	0	0	0	510	505	0	576	39	38	
8	0	0	0	0	508	506	0	587	38	39	
9	0	0	0	0	508	506	0	589	38	40	
10	0	0	0	0	511	505	0	588	38	41	
11	0	0	0	0	511	504	0	588	38	42	
12	0	0	0	0	509	505	0	582	38	41	
13	0	0	0	0	509	505	0	568	38	40	
14	0	0	0	0	510	506	0	547	38	39	
15	0	0	0	0	510	507	0	534	39	38	
0	0	0	0	0	509	508	0	528	38	39	
1	0	0	0	0	510	510	0	527	38	40	
2	0	0	0	0	508	509	0	517	38	41	
3	0	0	0	0	507	509	0	510	38	41	
4	0	0	0	0	509	509	0	513	38	42	
5	0	0	0	0	508	507	0	522	38	41	
6	0	0	0	0	509	508	0	532	38	40	
7	0	0	0	0	509	508	0	536	39	39	
8	0	0	0	0	509	507	0	531	38	38	
9	0	0	0	0	507	508	0	534	38	39	
10	0	0	0	0	511	508	0	547	38	40	
11	0	0	0	0	508	508	0	566	38	41	
12	0	0	0	0	509	509	0	560	38	42	
13	0	0	0	0	509	513	0	565	38	41	
14	0	0	0	0	509	513	0	582	38	40	
15	0	0	0	0	509	512	0	600	39	39	
0	0	0	0	0	509	511	0	615	38	38	
1	0	0	0	0	507	509	0	600	38	39	
2	0	0	0	0	505	510	0	575	38	40	
3	0	0	0	0	508	509	0	556	38	41	
4	0	0	0	0	508	509	0	535	38	42	
5	0	0	0	0	507	508	0	533	38	41	
6	0	0	0	0	509	508	0	534	38	41	
7	0	0	0	0	507	507	0	538	39	39	
8	0	0	0	0	509	507	0	542	38	38	
9	0	0	0	0	509	507	0	538	38	39	
10	0	0	0	0	510	508	0	537	38	40	
11	0	0	0	0	507	509	0	532	38	41	
12	0	0	0	0	508	508	0	526	38	42	
13	0	0	0	0	509	510	0	530	38	42	
14	0	0	0	0	508	511	0	532	38	41	
15	0	0	0	0	509	509	0	539	39	40	
0	0	0	0	0	509	509	0	545	38	39	
1	0	0	0	0	508	510	0	555	38	39	
2	0	0	0	0	510	508	0	552	38	40	
3	0	0	0	0	509	510	0	554	38	41	
4	0	0	0	0	510	508	0	563	38	41	
5	0	0	0	0	509	506	0	542	38	42	
6	0	0	0	0	509	505	0	519	38	41	
7	0	0	0	0	510	505	0	519	39	40	
8	0	0	0	0	510	503	0	531	38	39	
9	0	0	0	0	508	502	0	546	38	39	
10	0	0	0	0	507	504	0	540	38	39	
11	0	0	0	0	508	504	0	528	38	40	
12	0	0	0	0	511	504	0	515	38	41	
13	0	0	0	0	509	504	0	509	38	42	
14	0	0	0	0	509	504	0	497	38	42	
15	0	0	0	0	510	505	0	473	39	41	
0	0	0	0	0	510	504	0	464	38	39	
1	0	0	0	0	509	504	0	472	38	39	
2	0	0	0	0	509	507	0	475	38	39	
3	0	0	0	0	511	505	0	480	38	40	
4	0	0	0	0	507	506	0	490	38	41	
5	0	0	0	0	508	506	0	491	38	42	
6	0	0	0	0	508	507	0	488	38	42	
7	0	0	0	0	509	508	0	483	39	41	
8	0	0	0	0	507	507	0	477	38	40	
9	0	0	0	0	509	508	0	476	38	39	
10	0	0	0	0	508	508	0	481	38	39	
11	0	0	0	0	511	509	0	495	38	40	
12	0	0	0	0	511	509	0	504	38	41	
13	0	0	0	0	510	510	0	510	38	42	
14	0	0	0	0	510	510	0	505	38	42	
15	0	0	0	0	508	509	0	498	39	41	
0	0	0	0	0	509	508	0	503	38	40	
1	0	0	0	0	509	509	0	517	38	39	
2	0	0	0	0	509	512	0	540	38	39	
3	0	0	0	0	509	511	0	547	38	39	
4	0	0	0	0	508	509	0	537	38	40	
5	0	0	0	0	509	510	0	530	38	41	
6	0	0	0	0	510	509	0	534	38	42	
7	0	0	0	0	509	509	0	529	39	42	
8	0	0	0	0	509	509	0	531	38	41	
9	0	0	0	0	508	509	0	530	38	39	
10	0	0	0	0	509	509	0	510	38	39	
11	0	0	0	0	510	509	0	498	38	39	
12	0	0	0	0	509	508	0	499	38	40	
13	0	0	0	0	511	510	0	512	38	41	
14	0	0	0	0	511	511	0	518	38	42	
15	0	0	0	0	508	511	0	534	38	42	
0	0	0	0	0	509	511	0	547	38	41	
1	0	0	0	0	511	508	0	552	38	40	
2	0	0	0	0	509	507	0	560	38	39	
3	0	0	0	0	510	506	0	569	38	39	
4	0	0	0	0	508	505	0	582	38	40	
5	0	0	0	0	509	506	0	562	38	41	
6	0	0	0	0	508	506	0	536	38	42	
7	0	0	0	0	512	508	0	539	39	42	
8	0	0	0	0	510	508	0	537	38	41	
9	0	0	0	0	507	507	0	536	38	40	
10	0	0	0	0	508	506	0	539	38	39	
11	0	0	0	0	511	508	0	528	38	39	
12	0	0	0	0	509	508	0	512	38	40	
13	0	0	0	0	510	507	0	496	38	41	
14	0	0	0	0	510	507	0	486	38	41	
15	0	0	0	0	511	508	0	480	38	42	
0	0	0	0	0	511	509	0	484	38	42	
1	0	0	0	0	510	509	0	497	38	41	
2	0	0	0	0	511	508	0	477	38	39	
3	0	0	0	0	511	508	0	480	38	39	
4	0	0	0	0	509	508	0	483	38	39	
5	0	0	0	0	507	511	0	470	38	40	
6	0	0	0	0	508	511	0	472	38	41	
7	0	0	0	0	508	512	0	473	39	42	
8	0	0	0	0	509	512	0	483	38	42	
9	0	0	0	0	511	510	0	500	38	41	
10	0	0	0	0	507	510	0	515	38	40	
11	0	0	0	0	510	511	0	523	38	39	
12	0	0	0	0	510	509	0	521	38	39	
13	0	0	0	0	512	508	0	515	38	40	
14	0	0	0	0	508	508	0	522	38	41	
15	0	0	0	0	510	508	0	529	39	42	
0	0	0	0	0	509	508	0	529	38	42	
1	0	0	0	0	508	508	0	524	38	41	
2	0	0	0	0	508	508	0	519	38	40	
3	0	0	0	0	509	508	0	521	38	39	
4	0	0	0	0	510	507	0	527	38	39	
5	0	0	0	0	510	508	0	498	38	40	
6	0	0	0	0	507	508	0	459	38	41	
7	0	0	0	0	509	507	0	444	38	41	
8	0	0	0	0	509	507	0	467	38	42	
9	0	0	0	0	507	508	0	498	38	42	
10	0	0	0	0	506	508	0	518	38	41	
11	0	0	0	0	509	507	0	527	38	39	
12	0	0	0	0	509	508	0	530	38	39	
13	0	0	0	0	511	508	0	531	38	39	
14	0	0	0	0	510	508	0	526	38	40	
15	0	0	0	0	509	508	0	521	39	41	
0	0	0	0	0	509	508	0	518	38	42	
1	0	0	0	0	507	508	0	510	38	42	
2	0	0	0	0	510	507	0	523	38	41	
3	0	0	0	0	508	508	0	516	38	40	
4	0	0	0	0	510	508	0	528	38	39	
5	0	0	0	0	509	508	0	529	38	39	
6	0	0	0	0	509	508	0	530	38	40	
7	0	0	0	0	510	508	0	539	39	41	
8	0	0	0	0	510	509	0	531	38	42	
9	0	0	0	0	510	510	0	525	38	42	
10	0	0	0	0	510	509	0	518	38	41	
11	0	0	0	0	509	509	0	520	38	40	
12	0	0	0	0	508	509	0	519	38	39	
13	0	0	0	0	508	507	0	504	38	39	
14	0	0	0	0	508	506	0	499	38	40	
15	0	0	0	0	508	505	0	499	39	41	
0	0	0	0	0	508	505	0	503	38	41	
1	0	0	0	0	508	506	0	511	38	42	
2	0	0	0	0	508	506	0	497	38	42	
3	0	0	0	0	508	506	0	495	38	41	
4	0	0	0	0	510	505	0	496	38	39	
5	0	0	0	0	509	506	0	502	38	39	
6	0	0	0	0	508	507	0	519	38	39	
7	0	0	0	0	509	508	0	500	39	40	
8	0	0	0	0	511	509	0	497	38	41	
9	0	0	0	0	510	509	0	493	38	42	
10	0	0	0	0	509	508	0	495	38	42	
11	0	0	0	0	507	510	0	505	38	41	
12	0	0	0	0	508	510	0	523	38	40	
13	0	0	0	0	508	510	0	538	38	39	
14	0	0	0	0	508	510	0	533	38	39	
15	0	0	0	0	508	508	0	528	39	40	
0	0	0	0	0	508	509	0	524	38	41	
1	0	0	0	0	510	508	0	511	38	42	
2	0	0	0	0	509	507	0	494	38	42	
3	0	0	0	0	508	507	0	488	38	41	
4	0	0	0	0	508	506	0	484	38	40	
5	0	0	0	0	510	505	0	467	38	39	
6	0	0	0	0	507	506	0	443	38	39	
7	0	0	0	0	506	506	0	422	39	40	
8	0	0	0	0	507	506	0	403	38	41	
9	0	0	0	0	507	504	0	412	38	41	
10	0	0	0	0	508	503	0	422	38	42	
11	0	0	0	0	510	504	0	448	38	42	
12	0	0	0	0	508	505	0	481	38	40	
13	0	0	0	0	509	506	0	507	38	39	
14	0	0	0	0	509	504	0	520	38	39	
15	0	0	0	0	511	507	0	528	39	39	
0	0	0	0	0	508	506	0	529	38	40	
1	0	0	0	0	511	508	0	535	38	41	
2	0	0	0	0	511	509	0	537	38	42	
3	0	0	0	0	508	509	0	536	38	42	
4	0	0	0	0	511	510	0	531	38	41	
5	0	0	0	0	508	510	0	519	38	40	
6	0	0	0	0	509	508	0	521	38	39	
7	0	0	0	0	508	506	0	541	39	39	
8	0	0	0	0	508	504	0	566	38	40	
9	0	0	0	0	508	504	0	572	38	41	
10	0	0	0	0	506	504	0	566	38	42	
11	0	0	0	0	508	505	0	572	38	42	
12	0	0	0	0	508	506	0	579	38	41	
13	0	0	0	0	509	507	0	585	38	40	
14	0	0	0	0	509	508	0	568	38	39	
15	0	0	0	0	509	509	0	545	39	39	
0	0	0	0	0	510	508	0	537	38	40	
1	0	0	0	0	511	508	0	544	38	41	
2	0	0	0	0	508	508	0	563	38	41	
3	0	0	0	0	511	509	0	567	38	42	
4	0	0	0	0	511	507	0	560	38	42	
5	0	0	0	0	507	508	0	553	38	40	
6	0	0	0	0	508	506	0	557	38	39	
7	0	0	0	0	509	508	0	555	39	39	
8	0	0	0	0	510	508	0	547	38	39	
9	0	0	0	0	508	509	0	552	38	40	
10	0	0	0	0	508	510	0	556	38	41	
11	0	0	0	0	508	510	0	548	38	42	
12	0	0	0	0	511	511	0	542	38	42	
13	0	0	0	0	509	508	0	545	38	41	
14	0	0	0	0	509	507	0	555	38	40	
15	0	0	0	0	510	507	0	553	39	39	
0	0	0	0	0	509	507	0	543	38	39	
1	0	0	0	0	510	507	0	523	38	40	
2	0	0	0	0	508	506	0	504	38	41	
3	0	0	0	0	508	506	0	493	38	42	
4	0	0	0	0	509	506	0	488	38	42	
5	0	0	0	0	512	507	0	474	38	41	
6	0	0	0	0	509	508	0	463	38	40	
7	0	0	0	0	510	508	0	450	39	39	
8	0	0	0	0	509	509	0	440	38	39	
9	0	0	0	0	509	509	0	432	38	40	
10	0	0	0	0	508	509	0	429	38	41	
11	0	0	0	0	509	508	0	444	38	42	
12	0	0	0	0	508	508	0	460	38	42	
13	0	0	0	0	508	507	0	477	38	42	
14	0	0	0	0	510	509	0	494	38	40	
15	0	0	0	0	508	510	0	504	39	39	
0	0	0	0	0	509	511	0	519	38	39	
1	0	0	0	0	509	511	0	546	38	39	
2	0	0	0	0	506	511	0	568	38	40	
3	0	0	0	0	508	510	0	574	38	41	
4	0	0	0	0	508	509	0	561	38	42	
5	0	0	0	0	507	511	0	546	38	42	
6	0	0	0	0	508	511	0	534	38	41	
7	0	0	0	0	511	511	0	528	39	40	
8	0	0	0	0	512	511	0	506	38	39	
9	0	0	0	0	511	509	0	488	38	39	
10	0	0	0	0	512	509	0	487	38	40	
11	0	0	0	0	511	509	0	499	38	41	
12	0	0	0	0	511	508	0	505	38	42	
13	0	0	0	0	511	509	0	504	38	42	
14	0	0	0	0	505	507	0	496	38	41	
15	0	0	0	0	496	508	0	508	39	40	
0	0	0	0	0	494	506	0	524	38	39	
1	0	0	0	0	504	508	0	536	38	39	
2	0	0	0	0	524	509	0	553	38	40	
3	0	0	0	0	532	510	0	573	38	41	
4	0	0	0	0	524	512	0	591	38	42	
5	0	0	0	0	512	511	0	593	38	42	
6	0	0	0	0	502	511	0	583	38	42	
7	0	0	0	0	499	510	0	576	39	40	
8	0	0	0	0	505	509	0	572	38	39	
9	0	0	0	0	507	510	0	569	38	39	
10	0	0	0	0	509	509	0	575	38	39	
11	0	0	0	0	510	508	0	583	38	40	
12	0	0	0	0	509	508	0	594	38	41	
13	0	0	0	0	510	508	0	595	38	42	
14	0	0	0	0	510	510	0	593	38	42	
15	0	0	0	0	509	510	0	600	38	41	
0	0	0	0	0	506	510	0	591	38	40	
1	0	0	0	0	507	509	0	598	38	39	
2	0	0	0	0	508	509	0	600	38	39	
3	0	0	0	0	507	508	0	597	38	40	
4	0	0	0	0	508	509	0	583	38	41	
5	0	0	0	0	512	508	0	565	38	42	
6	0	0	0	0	511	509	0	548	38	42	
7	0	0	0	0	510	510	0	521	39	41	
8	0	0	0	0	510	509	0	508	38	40	
9	0	0	0	0	503	509	0	508	38	39	
10	0	0	0	0	497	511	0	500	38	39	
11	0	0	0	0	495	510	0	492	38	40	
12	0	0	0	0	493	509	0	492	38	41	
13	0	0	0	0	488	505	0	490	38	42	
14	0	0	0	0	491	505	0	482	38	42	
15	0	0	0	0	512	507	0	486	39	42	
0	0	0	0	0	547	507	0	491	38	41	
1	0	0	0	0	563	506	0	494	38	39	
2	0	0	0	0	563	507	0	495	38	39	
3	0	0	0	0	543	508	0	500	38	40	
4	0	0	0	0	511	508	0	502	38	41	
5	0	0	0	0	489	508	0	495	38	42	
6	0	0	0	0	487	510	0	482	38	42	
7	0	0	0	0	491	511	0	471	39	42	
8	0	0	0	0	487	509	0	458	38	41	
9	0	0	0	0	488	510	0	459	38	40	
10	0	0	0	0	494	510	0	468	38	39	
11	0	0	0	0	505	509	0	469	38	39	
12	0	0	0	0	519	510	0	460	38	40	
13	0	0	0	0	522	509	0	453	38	41	
14	0	0	0	0	527	508	0	462	38	42	
15	0	0	0	0	529	508	0	472	39	42	
0	0	0	0	0	524	508	0	484	38	41	
1	0	0	0	0	508	507	0	492	38	40	
2	0	0	0	0	499	508	0	502	38	39	
3	0	0	0	0	490	508	0	516	38	39	
4	0	0	0	0	486	508	0	507	38	40	
5	0	0	0	0	487	507	0	472	38	41	
6	0	0	0	0	481	506	0	449	38	42	
7	0	0	0	0	493	506	0	451	39	42	
8	0	0	0	0	518	505	0	456	38	42	
9	0	0	0	0	540	505	0	451	38	41	
10	0	0	0	0	568	506	0	451	38	39	
11	0	0	0	0	553	506	0	468	38	39	
12	0	0	0	0	508	506	0	482	38	40	
13	0	0	0	0	453	507	0	504	38	41	
14	0	0	0	0	460	505	0	515	38	42	
15	0	0	0	0	508	504	0	500	39	42	
0	0	0	0	0	523	504	0	509	38	42	
1	0	0	0	0	526	504	0	526	38	41	
2	0	0	0	0	527	504	0	544	38	40	
3	0	0	0	0	540	504	0	548	38	39	
4	0	0	0	0	538	506	0	543	38	39	
5	0	0	0	0	502	506	0	527	38	40	
6	0	0	0	0	497	506	0	505	38	41	
7	0	0	0	0	508	505	0	484	38	42	
8	0	0	0	0	514	505	0	471	38	42	
9	0	0	0	0	513	506	0	448	38	42	
10	0	0	0	0	509	504	0	460	38	40	
11	0	0	0	0	504	505	0	484	38	39	
12	0	0	0	0	501	505	0	510	38	39	
13	0	0	0	0	502	506	0	527	38	40	
14	0	0	0	0	505	505	0	533	38	41	
15	0	0	0	0	502	506	0	530	39	42	
0	0	0	0	0	499	508	0	524	38	42	
1	0	0	0	0	495	508	0	513	38	42	
2	0	0	0	0	495	506	0	504	38	41	
3	0	0	0	0	493	506	0	497	38	39	
4	0	0	0	0	496	507	0	498	38	39	
5	0	0	0	0	497	505	0	515	38	40	
6	0	0	0	0	510	505	0	531	38	41	
7	0	0	0	0	531	504	0	538	39	42	
8	0	0	0	0	551	505	0	536	38	42	
9	0	0	0	0	539	504	0	540	38	42	
10	0	0	0	0	523	505	0	543	38	41	
11	0	0	0	0	513	504	0	534	38	40	
12	0	0	0	0	504	504	0	510	38	39	
13	0	0	0	0	504	504	0	484	38	39	
14	0	0	0	0	492	504	0	463	38	41	
15	0	0	0	0	483	504	0	457	39	42	
0	0	0	0	0	504	502	0	445	38	42	
1	0	0	0	0	520	503	0	436	38	42	
2	0	0	0	0	517	504	0	434	38	42	
3	0	0	0	0	507	504	0	443	38	40	
4	0	0	0	0	512	505	0	453	38	39	
5	0	0	0	0	524	505	0	471	38	39	
6	0	0	0	0	524	506	0	473	38	40	
7	0	0	0	0	517	508	0	478	39	41	
8	0	0	0	0	498	507	0	494	38	42	
9	0	0	0	0	496	509	0	495	38	43	
10	0	0	0	0	500	509	0	505	38	42	
11	0	0	0	0	487	508	0	514	38	41	
12	0	0	0	0	476	507	0	496	38	39	
13	0	0	0	0	478	507	0	473	38	39	
14	0	0	0	0	490	508	0	463	38	40	
15	0	0	0	0	510	508	0	463	39	41	
0	0	0	0	0	509	508	0	461	38	42	
1	0	0	0	0	515	510	0	457	38	43	
2	0	0	0	0	500	508	0	465	38	42	
3	0	0	0	0	512	508	0	468	38	41	
4	0	0	0	0	548	509	0	452	38	40	
5	0	0	0	0	547	509	0	443	38	39	
6	0	0	0	0	528	509	0	464	38	40	
7	0	0	0	0	552	510	0	471	39	41	
8	0	0	0	0	547	507	0	491	38	42	
9	0	0	0	0	499	507	0	502	38	42	
10	0	0	0	0	451	506	0	505	38	43	
11	0	0	0	0	470	507	0	503	38	42	
12	0	0	0	0	531	507	0	492	38	40	
13	0	0	0	0	562	506	0	489	38	39	
14	0	0	0	0	560	504	0	497	38	39	
15	0	0	0	0	507	505	0	506	39	40	
0	0	0	0	0	459	505	0	508	38	42	
1	0	0	0	0	463	506	0	515	38	42	
2	0	0	0	0	493	504	0	532	38	43	
3	0	0	0	0	494	504	0	543	38	42	
4	0	0	0	0	479	505	0	530	38	41	
5	0	0	0	0	486	506	0	519	38	40	
6	0	0	0	0	556	504	0	521	38	39	
7	0	0	0	0	618	506	0	536	39	40	
8	0	0	0	0	579	509	0	551	38	41	
9	0	0	0	0	437	508	0	546	38	42	
10	0	0	0	0	341	507	0	531	38	43	
11	0	0	0	0	336	507	0	524	38	42	
12	0	0	0	0	472	505	0	534	38	41	
13	0	0	0	0	655	504	0	549	38	40	
14	0	0	0	0	703	504	0	563	38	39	
15	0	0	0	0	669	506	0	568	39	40	
0	0	0	0	0	563	507	0	565	38	41	
1	0	0	0	0	518	508	0	551	38	42	
2	0	0	0	0	469	509	0	536	38	43	
3	0	0	0	0	463	510	0	521	38	43	
4	0	0	0	0	469	509	0	503	38	42	
5	0	0	0	0	474	511	0	497	38	41	
6	0	0	0	0	482	512	0	512	38	40	
7	0	0	0	0	486	512	0	505	39	40	
8	0	0	0	0	488	513	0	490	38	41	
9	0	0	0	0	494	511	0	471	38	42	
10	0	0	0	0	496	509	0	462	38	43	
11	0	0	0	0	492	510	0	460	38	43	
12	0	0	0	0	487	510	0	456	38	42	
13	0	0	0	0	482	508	0	463	38	41	
14	0	0	0	0	483	510	0	487	38	40	
15	0	0	0	0	501	508	0	522	39	40	
0	0	0	0	0	523	509	0	555	38	40	
1	0	0	0	0	527	508	0	575	38	42	
2	0	0	0	0	528	509	0	593	38	42	
3	0	0	0	0	532	508	0	601	38	43	
4	0	0	0	0	512	506	0	596	38	43	
5	0	0	0	0	516	506	0	583	38	42	
6	0	0	0	0	515	505	0	565	38	40	
7	0	0	0	0	512	507	0	560	39	40	
8	0	0	0	0	509	506	0	564	38	40	
9	0	0	0	0	503	507	0	572	38	41	
10	0	0	0	0	495	506	0	575	38	42	
11	0	0	0	0	494	506	0	563	38	43	
12	0	0	0	0	516	507	0	552	38	43	
13	0	0	0	0	551	507	0	532	38	42	
14	0	0	0	0	533	506	0	523	38	41	
15	0	0	0	0	512	507	0	515	39	40	
0	0	0	0	0	488	505	0	515	38	40	
1	0	0	0	0	494	506	0	512	38	41	
2	0	0	0	0	501	507	0	519	38	42	
3	0	0	0	0	503	507	0	530	38	43	
4	0	0	0	0	504	508	0	546	38	43	
5	0	0	0	0	507	509	0	545	38	42	
6	0	0	0	0	506	508	0	530	38	41	
7	0	0	0	0	507	507	0	513	39	40	
8	0	0	0	0	508	507	0	503	38	40	
9	0	0	0	0	508	508	0	505	38	41	
10	0	0	0	0	509	507	0	504	38	42	
11	0	0	0	0	508	507	0	508	38	43	
12	0	0	0	0	511	508	0	500	38	43	
13	0	0	0	0	508	507	0	500	38	43	
14	0	0	0	0	511	508	0	507	38	42	
15	0	0	0	0	508	510	0	522	39	40	
0	0	0	0	0	507	509	0	539	38	40	
1	0	0	0	0	508	510	0	556	38	40	
2	0	0	0	0	510	509	0	578	38	41	
3	0	0	0	0	512	508	0	596	38	42	
4	0	0	0	0	515	507	0	598	38	43	
5	0	0	0	0	513	506	0	576	38	43	
6	0	0	0	0	511	508	0	541	38	42	
7	0	0	0	0	511	509	0	519	39	41	
8	0	0	0	0	512	509	0	505	38	40	
9	0	0	0	0	509	509	0	503	38	40	
10	0	0	0	0	511	508	0	497	38	41	
11	0	0	0	0	510	508	0	484	38	42	
12	0	0	0	0	509	508	0	477	38	43	
13	0	0	0	0	511	508	0	483	38	43	
14	0	0	0	0	509	510	0	476	38	43	
15	0	0	0	0	509	509	0	471	39	41	
0	0	0	0	0	510	508	0	462	38	40	
1	0	0	0	0	511	510	0	472	38	40	
2	0	0	0	0	509	511	0	490	38	41	
3	0	0	0	0	508	511	0	513	38	42	
4	0	0	0	0	511	510	0	544	38	43	
5	0	0	0	0	508	508	0	565	38	43	
6	0	0	0	0	510	510	0	582	38	43	
7	0	0	0	0	512	511	0	581	39	42	
8	0	0	0	0	510	510	0	591	38	40	
9	0	0	0	0	509	511	0	598	38	40	
10	0	0	0	0	510	509	0	600	38	40	
11	0	0	0	0	509	509	0	602	38	41	
12	0	0	0	0	511	507	0	595	38	42	
13	0	0	0	0	511	507	0	581	38	43	
14	0	0	0	0	511	507	0	561	38	43	
15	0	0	0	0	512	505	0	543	39	42	
0	0	0	0	0	511	505	0	535	38	41	
1	0	0	0	0	510	506	0	519	38	40	
2	0	0	0	0	506	508	0	510	38	40	
3	0	0	0	0	501	508	0	489	38	41	
4	0	0	0	0	500	509	0	482	38	42	
5	0	0	0	0	519	508	0	486	38	43	
6	0	0	0	0	530	508	0	496	38	43	
7	0	0	0	0	524	508	0	505	39	42	
8	0	0	0	0	514	507	0	499	38	41	
9	0	0	0	0	504	506	0	494	38	40	
10	0	0	0	0	507	507	0	499	38	40	
11	0	0	0	0	508	508	0	492	38	41	
12	0	0	0	0	509	508	0	485	38	42	
13	0	0	0	0	508	509	0	475	38	43	
14	0	0	0	0	509	510	0	469	38	43	
15	0	0	0	0	509	509	0	475	39	43	
0	0	0	0	0	510	508	0	483	38	42	
1	0	0	0	0	509	508	0	494	38	40	
2	0	0	0	0	510	508	0	503	38	40	
3	0	0	0	0	509	509	0	507	38	40	
4	0	0	0	0	511	509	0	496	38	41	
5	0	0	0	0	507	509	0	487	38	42	
6	0	0	0	0	508	508	0	472	38	43	
7	0	0	0	0	508	509	0	448	39	43	
8	0	0	0	0	510	510	0	438	38	42	
9	0	0	0	0	510	508	0	442	38	41	
10	0	0	0	0	508	508	0	445	38	40	
11	0	0	0	0	510	507	0	458	38	40	
12	0	0	0	0	508	507	0	449	38	41	
13	0	0	0	0	508	506	0	452	38	42	
14	0	0	0	0	508	507	0	462	38	43	
15	0	0	0	0	511	505	0	475	39	43	
0	0	0	0	0	509	505	0	489	38	42	
1	0	0	0	0	509	507	0	482	38	41	
2	0	0	0	0	512	508	0	473	38	40	
3	0	0	0	0	512	508	0	475	38	40	
4	0	0	0	0	510	508	0	475	38	41	
5	0	0	0	0	510	508	0	476	38	42	
6	0	0	0	0	509	509	0	474	38	43	
7	0	0	0	0	508	508	0	492	39	43	
8	0	0	0	0	511	508	0	488	38	43	
9	0	0	0	0	509	509	0	486	38	41	
10	0	0	0	0	509	508	0	506	38	40	
11	0	0	0	0	510	508	0	516	38	40	
12	0	0	0	0	510	508	0	523	38	40	
13	0	0	0	0	510	509	0	524	38	41	
14	0	0	0	0	510	510	0	523	38	42	
15	0	0	0	0	511	511	0	530	39	43	
0	0	0	0	0	512	511	0	523	38	43	
1	0	0	0	0	510	511	0	507	38	42	
2	0	0	0	0	511	510	0	508	38	40	
3	0	0	0	0	509	510	0	523	38	40	
4	0	0	0	0	509	510	0	540	38	40	
5	0	0	0	0	509	508	0	525	38	41	
6	0	0	0	0	510	508	0	513	38	42	
7	0	0	0	0	511	506	0	526	39	43	
8	0	0	0	0	512	507	0	532	38	43	
9	0	0	0	0	510	507	0	523	38	42	
10	0	0	0	0	508	506	0	505	38	41	
11	0	0	0	0	508	508	0	484	38	40	
12	0	0	0	0	509	508	0	481	38	40	
13	0	0	0	0	510	508	0	493	38	40	
14	0	0	0	0	510	509	0	505	38	42	
15	0	0	0	0	509	509	0	513	39	42	
0	0	0	0	0	512	508	0	517	38	43	
1	0	0	0	0	511	508	0	532	38	42	
2	0	0	0	0	512	507	0	546	38	41	
3	0	0	0	0	511	506	0	549	38	40	
4	0	0	0	0	509	507	0	534	38	39	
5	0	0	0	0	510	507	0	514	38	40	
6	0	0	0	0	510	507	0	499	38	41	
7	0	0	0	0	512	507	0	489	39	42	
8	0	0	0	0	508	506	0	503	38	43	
9	0	0	0	0	508	507	0	513	38	43	
10	0	0	0	0	507	507	0	519	38	42	
11	0	0	0	0	511	507	0	517	38	40	
12	0	0	0	0	511	507	0	534	38	39	
13	0	0	0	0	510	507	0	535	38	40	
14	0	0	0	0	511	508	0	537	38	41	
15	0	0	0	0	511	507	0	542	39	42	
0	0	0	0	0	511	508	0	550	38	43	
1	0	0	0	0	512	509	0	537	38	43	
2	0	0	0	0	510	510	0	528	38	42	
3	0	0	0	0	512	508	0	518	38	41	
4	0	0	0	0	510	507	0	512	38	40	
5	0	0	0	0	511	506	0	500	38	40	
6	0	0	0	0	510	507	0	492	38	40	
7	0	0	0	0	510	508	0	489	39	42	
8	0	0	0	0	510	509	0	488	38	42	
9	0	0	0	0	511	507	0	480	38	43	
10	0	0	0	0	509	506	0	479	38	42	
11	0	0	0	0	508	506	0	467	38	41	
12	0	0	0	0	507	506	0	468	38	40	
13	0	0	0	0	509	507	0	469	38	39	
14	0	0	0	0	508	508	0	466	38	40	
15	0	0	0	0	511	508	0	480	39	41	
0	0	0	0	0	510	508	0	487	38	42	
1	0	0	0	0	511	507	0	483	38	43	
2	0	0	0	0	511	509	0	470	38	43	
3	0	0	0	0	508	510	0	451	38	42	
4	0	0	0	0	511	507	0	448	38	40	
5	0	0	0	0	510	508	0	470	38	40	
6	0	0	0	0	508	508	0	497	38	40	
7	0	0	0	0	510	509	0	532	39	41	
8	0	0	0	0	509	510	0	552	38	42	
9	0	0	0	0	507	511	0	558	38	43	
10	0	0	0	0	510	510	0	569	38	43	
11	0	0	0	0	508	510	0	571	38	42	
12	0	0	0	0	509	509	0	564	38	41	
13	0	0	0	0	509	508	0	547	38	40	
14	0	0	0	0	509	510	0	534	38	40	
15	0	0	0	0	508	509	0	535	38	41	
0	0	0	0	0	508	508	0	542	38	42	
1	0	0	0	0	508	506	0	558	38	43	
2	0	0	0	0	508	507	0	572	38	43	
3	0	0	0	0	509	508	0	575	38	43	
4	0	0	0	0	509	509	0	571	38	41	
5	0	0	0	0	508	509	0	563	38	40	
6	0	0	0	0	510	509	0	531	38	40	
7	0	0	0	0	508	510	0	497	39	40	
8	0	0	0	0	510	510	0	483	38	41	
9	0	0	0	0	509	510	0	476	38	42	
10	0	0	0	0	510	510	0	476	38	43	
11	0	0	0	0	509	508	0	468	38	43	
12	0	0	0	0	509	508	0	472	38	42	
13	0	0	0	0	510	507	0	471	38	40	
14	0	0	0	0	511	506	0	465	38	40	
15	0	0	0	0	510	504	0	467	39	40	
0	0	0	0	0	510	504	0	444	38	41	
1	0	0	0	0	510	505	0	428	38	42	
2	0	0	0	0	510	506	0	423	38	43	
3	0	0	0	0	510	506	0	419	38	43	
4	0	0	0	0	512	504	0	428	38	42	
5	0	0	0	0	511	505	0	444	38	41	
6	0	0	0	0	508	504	0	462	38	40	
7	0	0	0	0	508	505	0	495	39	40	
8	0	0	0	0	510	508	0	522	38	41	
9	0	0	0	0	511	508	0	530	38	42	
10	0	0	0	0	509	508	0	521	38	43	
11	0	0	0	0	508	505	0	511	38	43	
12	0	0	0	0	507	505	0	524	38	43	
13	0	0	0	0	508	507	0	541	38	41	
14	0	0	0	0	506	507	0	547	38	40	
15	0	0	0	0	509	507	0	534	39	40	
0	0	0	0	0	510	506	0	508	38	41	
1	0	0	0	0	507	507	0	482	38	42	
2	0	0	0	0	508	507	0	465	38	43	
3	0	0	0	0	509	506	0	463	38	43	
4	0	0	0	0	509	506	0	460	38	43	
5	0	0	0	0	508	508	0	448	38	42	
6	0	0	0	0	510	508	0	452	38	41	
7	0	0	0	0	510	509	0	465	39	40	
8	0	0	0	0	508	508	0	481	38	40	
9	0	0	0	0	508	508	0	496	38	41	
10	0	0	0	0	509	508	0	507	38	42	
11	0	0	0	0	511	506	0	518	38	43	
12	0	0	0	0	510	507	0	515	38	43	
13	0	0	0	0	509	508	0	511	38	42	
14	0	0	0	0	511	508	0	512	38	41	
15	0	0	0	0	508	507	0	504	38	40	
0	0	0	0	0	511	508	0	505	38	40	
1	0	0	0	0	512	507	0	507	38	41	
2	0	0	0	0	508	508	0	500	38	42	
3	0	0	0	0	509	510	0	494	38	43	
4	0	0	0	0	508	510	0	492	38	43	
5	0	0	0	0	511	510	0	495	38	43	
6	0	0	0	0	510	508	0	491	38	42	
7	0	0	0	0	510	509	0	492	38	40	
8	0	0	0	0	512	508	0	514	38	40	
9	0	0	0	0	508	508	0	549	38	41	
10	0	0	0	0	511	510	0	579	38	42	
11	0	0	0	0	509	509	0	582	38	43	
12	0	0	0	0	509	511	0	574	38	43	
13	0	0	0	0	511	511	0	570	38	43	
14	0	0	0	0	508	512	0	556	38	42	
15	0	0	0	0	508	512	0	544	39	41	
0	0	0	0	0	509	510	0	547	38	40	
1	0	0	0	0	508	509	0	551	38	40	
2	0	0	0	0	510	508	0	550	38	41	
3	0	0	0	0	510	509	0	538	38	42	
4	0	0	0	0	512	508	0	526	38	43	
5	0	0	0	0	511	510	0	534	38	43	
6	0	0	0	0	510	510	0	531	38	42	
7	0	0	0	0	509	509	0	534	39	41	
8	0	0	0	0	511	508	0	540	38	40	
9	0	0	0	0	511	507	0	549	38	40	
10	0	0	0	0	512	508	0	553	38	41	
11	0	0	0	0	510	507	0	569	38	42	
12	0	0	0	0	509	508	0	586	38	43	
13	0	0	0	0	509	508	0	597	38	43	
14	0	0	0	0	510	507	0	578	38	43	
15	0	0	0	0	510	505	0	563	39	42	
0	0	0	0	0	509	504	0	551	38	40	
1	0	0	0	0	508	505	0	544	38	40	
2	0	0	0	0	512	505	0	539	38	41	
3	0	0	0	0	510	505	0	549	38	42	
4	0	0	0	0	509	505	0	571	38	43	
5	0	0	0	0	508	506	0	582	38	43	
6	0	0	0	0	510	508	0	596	38	43	
7	0	0	0	0	510	508	0	603	39	42	
8	0	0	0	0	510	509	0	603	38	41	
9	0	0	0	0	510	508	0	593	38	40	
10	0	0	0	0	511	506	0	583	38	40	
11	0	0	0	0	508	506	0	569	38	42	
12	0	0	0	0	507	505	0	551	38	42	
13	0	0	0	0	508	508	0	541	38	43	
14	0	0	0	0	510	508	0	535	38	43	
15	0	0	0	0	508	509	0	529	39	42	
0	0	0	0	0	509	509	0	510	38	41	
1	0	0	0	0	510	510	0	491	38	40	
2	0	0	0	0	509	508	0	483	38	40	
3	0	0	0	0	511	508	0	474	38	41	
4	0	0	0	0	509	507	0	470	38	42	
5	0	0	0	0	508	508	0	465	38	43	
6	0	0	0	0	510	509	0	453	38	43	
7	0	0	0	0	512	508	0	448	39	43	
8	0	0	0	0	510	508	0	456	38	42	
9	0	0	0	0	509	506	0	466	38	40	
10	0	0	0	0	509	505	0	476	38	40	
11	0	0	0	0	506	505	0	482	38	41	
12	0	0	0	0	507	505	0	491	38	42	
13	0	0	0	0	508	505	0	496	38	43	
14	0	0	0	0	507	507	0	492	38	43	
15	0	0	0	0	507	507	0	477	39	43	
0	0	0	0	0	506	507	0	464	38	42	
1	0	0	0	0	507	506	0	465	38	41	
2	0	0	0	0	508	505	0	453	38	40	
3	0	0	0	0	506	507	0	438	38	41	
4	0	0	0	0	507	508	0	418	38	42	
5	0	0	0	0	506	505	0	401	38	43	
6	0	0	0	0	505	505	0	396	38	43	
7	0	0	0	0	506	506	0	419	38	43	
8	0	0	0	0	507	504	0	436	38	42	
9	0	0	0	0	509	505	0	435	38	41	
10	0	0	0	0	509	507	0	432	38	40	
11	0	0	0	0	509	507	0	447	38	40	
12	0	0	0	0	508	509	0	478	38	41	
13	0	0	0	0	509	510	0	509	38	42	
14	0	0	0	0	508	510	0	535	38	43	
15	0	0	0	0	507	508	0	540	39	43	
0	0	0	0	0	508	508	0	535	38	43	
1	0	0	0	0	510	508	0	524	38	42	
2	0	0	0	0	508	508	0	493	38	40	
3	0	0	0	0	508	508	0	465	38	40	
4	0	0	0	0	509	508	0	443	38	41	
5	0	0	0	0	508	508	0	440	38	42	
6	0	0	0	0	509	508	0	446	38	43	
7	0	0	0	0	507	507	0	447	39	43	
8	0	0	0	0	507	509	0	451	38	43	
9	0	0	0	0	508	509	0	473	38	42	
10	0	0	0	0	508	508	0	513	38	41	
11	0	0	0	0	505	509	0	543	38	40	
12	0	0	0	0	509	509	0	566	38	41	
13	0	0	0	0	510	510	0	594	38	42	
14	0	0	0	0	508	509	0	605	38	43	
15	0	0	0	0	510	508	0	624	39	43	
0	0	0	0	0	510	508	0	608	38	43	
1	0	0	0	0	508	507	0	588	38	42	
2	0	0	0	0	511	508	0	583	38	41	
3	0	0	0	0	509	507	0	579	38	40	
4	0	0	0	0	510	506	0	571	38	40	
5	0	0	0	0	506	507	0	560	38	41	
6	0	0	0	0	508	507	0	547	38	42	
7	0	0	0	0	508	505	0	553	39	43	
8	0	0	0	0	510	506	0	544	38	43	
9	0	0	0	0	510	507	0	524	38	43	
10	0	0	0	0	509	506	0	501	38	42	
11	0	0	0	0	508	505	0	484	38	40	
12	0	0	0	0	508	506	0	473	38	40	
13	0	0	0	0	508	508	0	459	38	41	
14	0	0	0	0	511	506	0	449	38	42	
15	0	0	0	0	505	508	0	458	39	43	
0	0	0	0	0	509	509	0	474	38	43	
1	0	0	0	0	509	508	0	483	38	43	
2	0	0	0	0	508	509	0	488	38	42	
3	0	0	0	0	507	510	0	481	38	41	
4	0	0	0	0	509	510	0	476	38	40	
5	0	0	0	0	507	511	0	470	38	41	
6	0	0	0	0	510	509	0	476	38	42	
7	0	0	0	0	510	509	0	489	39	42	
8	0	0	0	0	510	509	0	497	38	43	
9	0	0	0	0	509	510	0	503	38	43	
10	0	0	0	0	509	510	0	496	38	42	
11	0	0	0	0	509	510	0	484	38	41	
12	0	0	0	0	507	510	0	476	38	40	
13	0	0	0	0	509	509	0	466	38	40	
14	0	0	0	0	508	509	0	440	38	41	
15	0	0	0	0	507	508	0	425	39	42	
0	0	0	0	0	507	509	0	427	38	43	
1	0	0	0	0	508	509	0	421	38	43	
2	0	0	0	0	508	509	0	424	38	43	
3	0	0	0	0	507	509	0	440	38	41	
4	0	0	0	0	506	509	0	449	38	40	
5	0	0	0	0	506	508	0	460	38	40	
6	0	0	0	0	507	507	0	466	38	41	
7	0	0	0	0	508	505	0	468	38	42	
8	0	0	0	0	509	507	0	473	38	43	
9	0	0	0	0	510	507	0	480	38	43	
10	0	0	0	0	508	507	0	482	38	43	
11	0	0	0	0	510	506	0	477	38	42	
12	0	0	0	0	509	508	0	475	38	40	
13	0	0	0	0	511	508	0	472	38	40	
14	0	0	0	0	511	508	0	478	38	40	
15	0	0	0	0	510	509	0	489	39	41	
0	0	0	0	0	510	508	0	489	38	42	
1	0	0	0	0	508	508	0	499	38	43	
2	0	0	0	0	510	508	0	520	38	43	
3	0	0	0	0	508	508	0	528	38	42	
4	0	0	0	0	508	508	0	525	38	41	
5	0	0	0	0	509	507	0	512	38	40	
6	0	0	0	0	508	506	0	505	38	40	
7	0	0	0	0	510	506	0	510	39	41	
8	0	0	0	0	508	508	0	519	38	42	
9	0	0	0	0	508	508	0	542	38	43	
10	0	0	0	0	510	508	0	551	38	43	
11	0	0	0	0	511	508	0	555	38	42	
12	0	0	0	0	508	508	0	548	38	41	
13	0	0	0	0	510	508	0	536	38	40	
14	0	0	0	0	510	509	0	521	38	40	
15	0	0	0	0	509	509	0	499	39	41	
0	0	0	0	0	508	508	0	492	38	41	
1	0	0	0	0	508	508	0	491	38	42	
2	0	0	0	0	508	507	0	484	38	43	
3	0	0	0	0	510	506	0	479	38	42	
4	0	0	0	0	507	505	0	472	38	41	
5	0	0	0	0	508	507	0	484	38	40	
6	0	0	0	0	508	507	0	497	38	40	
7	0	0	0	0	508	507	0	502	39	40	
8	0	0	0	0	511	509	0	518	38	41	
9	0	0	0	0	511	510	0	531	38	42	
10	0	0	0	0	508	510	0	539	38	43	
11	0	0	0	0	508	508	0	555	38	43	
12	0	0	0	0	508	509	0	576	38	42	
13	0	0	0	0	508	510	0	588	38	40	
14	0	0	0	0	507	511	0	575	38	40	
15	0	0	0	0	510	510	0	570	39	40	
0	0	0	0	0	509	510	0	569	38	41	
1	0	0	0	0	508	509	0	561	38	42	
2	0	0	0	0	510	508	0	545	38	42	
3	0	0	0	0	509	509	0	522	38	43	
4	0	0	0	0	507	508	0	523	38	42	
5	0	0	0	0	511	509	0	533	38	41	
6	0	0	0	0	508	508	0	536	38	40	
7	0	0	0	0	508	509	0	535	39	39	
8	0	0	0	0	508	508	0	531	38	40	
9	0	0	0	0	510	508	0	527	38	41	
10	0	0	0	0	508	507	0	533	38	42	
11	0	0	0	0	510	508	0	540	38	43	
12	0	0	0	0	510	509	0	539	38	42	
13	0	0	0	0	507	508	0	521	38	41	
14	0	0	0	0	508	508	0	508	38	40	
15	0	0	0	0	509	508	0	504	39	39	
0	0	0	0	0	508	508	0	501	38	40	
1	0	0	0	0	511	509	0	492	38	41	
2	0	0	0	0	512	508	0	486	38	42	
3	0	0	0	0	510	508	0	488	38	42	
4	0	0	0	0	510	508	0	481	38	42	
5	0	0	0	0	510	509	0	469	38	41	
6	0	0	0	0	508	511	0	455	38	40	
7	0	0	0	0	508	511	0	451	38	39	
8	0	0	0	0	508	511	0	457	38	39	
9	0	0	0	0	508	510	0	478	38	40	
10	0	0	0	0	510	508	0	496	38	41	
11	0	0	0	0	509	505	0	508	38	42	
12	0	0	0	0	509	505	0	506	38	42	
13	0	0	0	0	511	506	0	510	38	42	
14	0	0	0	0	509	507	0	521	38	41	
15	0	0	0	0	508	507	0	526	38	39	
0	0	0	0	0	507	508	0	522	38	39	
1	0	0	0	0	508	508	0	518	38	40	
2	0	0	0	0	511	509	0	520	38	41	
3	0	0	0	0	511	508	0	515	38	42	
4	0	0	0	0	508	508	0	488	38	42	
5	0	0	0	0	509	510	0	463	38	42	
6	0	0	0	0	508	508	0	448	38	41	
7	0	0	0	0	508	508	0	441	38	40	
8	0	0	0	0	510	509	0	442	38	39	
9	0	0	0	0	508	508	0	444	38	40	
10	0	0	0	0	509	508	0	427	38	41	
11	0	0	0	0	508	508	0	414	38	42	
12	0	0	0	0	508	506	0	413	38	42	
13	0	0	0	0	509	509	0	415	38	42	
14	0	0	0	0	509	508	0	441	38	41	
15	0	0	0	0	510	508	0	432	39	40	
0	0	0	0	0	508	507	0	435	38	39	
1	0	0	0	0	511	507	0	440	38	39	
2	0	0	0	0	508	508	0	448	38	40	
3	0	0	0	0	510	508	0	463	38	41	
4	0	0	0	0	507	508	0	478	38	42	
5	0	0	0	0	506	509	0	486	38	42	
6	0	0	0	0	508	509	0	495	38	41	
7	0	0	0	0	508	508	0	510	39	40	
8	0	0	0	0	508	509	0	538	38	39	
9	0	0	0	0	506	507	0	544	38	39	
10	0	0	0	0	507	508	0	534	38	40	
11	0	0	0	0	509	508	0	537	38	41	
12	0	0	0	0	510	508	0	560	38	42	
13	0	0	0	0	508	507	0	583	38	42	
14	0	0	0	0	508	509	0	592	38	42	
15	0	0	0	0	511	510	0	593	39	41	
0	0	0	0	0	512	508	0	587	38	39	
1	0	0	0	0	510	508	0	578	38	39	
2	0	0	0	0	511	510	0	572	38	39	
3	0	0	0	0	509	510	0	549	38	40	
4	0	0	0	0	508	511	0	521	38	41	
5	0	0	0	0	508	510	0	503	38	42	
6	0	0	0	0	508	509	0	492	38	42	
7	0	0	0	0	508	510	0	494	39	41	
8	0	0	0	0	507	510	0	483	38	40	
9	0	0	0	0	507	510	0	472	38	39	
10	0	0	0	0	509	509	0	477	38	39	
11	0	0	0	0	507	511	0	495	38	40	
12	0	0	0	0	509	512	0	507	38	41	
13	0	0	0	0	508	512	0	514	38	42	
14	0	0	0	0	507	513	0	522	38	42	
15	0	0	0	0	509	511	0	527	39	41	
0	0	0	0	0	510	510	0	537	38	40	
1	0	0	0	0	511	510	0	558	38	39	
2	0	0	0	0	508	508	0	575	38	39	
3	0	0	0	0	508	508	0	568	38	40	
4	0	0	0	0	507	507	0	572	38	41	
5	0	0	0	0	508	507	0	575	38	41	
6	0	0	0	0	508	508	0	580	38	42	
7	0	0	0	0	509	508	0	575	39	42	
8	0	0	0	0	508	508	0	571	38	40	
9	0	0	0	0	508	507	0	563	38	39	
10	0	0	0	0	508	507	0	553	38	39	
11	0	0	0	0	506	508	0	540	38	39	
12	0	0	0	0	506	507	0	529	38	40	
13	0	0	0	0	508	506	0	517	38	41	
14	0	0	0	0	506	506	0	521	38	42	
15	0	0	0	0	509	507	0	527	38	42	
0	0	0	0	0	510	506	0	537	38	41	
1	0	0	0	0	510	504	0	536	38	39	
2	0	0	0	0	510	505	0	531	38	39	
3	0	0	0	0	512	506	0	515	38	39	
4	0	0	0	0	511	505	0	504	38	40	
5	0	0	0	0	511	505	0	512	38	41	
6	0	0	0	0	508	503	0	521	38	41	
7	0	0	0	0	508	500	0	506	38	42	
8	0	0	0	0	508	502	0	501	38	41	
9	0	0	0	0	509	503	0	505	38	40	
10	0	0	0	0	507	503	0	509	38	39	
11	0	0	0	0	508	504	0	520	38	39	
12	0	0	0	0	510	505	0	527	38	39	
13	0	0	0	0	508	505	0	537	38	40	
14	0	0	0	0	507	505	0	555	38	41	
15	0	0	0	0	511	505	0	568	39	42	
0	0	0	0	0	508	506	0	583	38	41	
1	0	0	0	0	509	506	0	578	38	40	
2	0	0	0	0	510	508	0	576	38	39	
3	0	0	0	0	511	507	0	577	38	38	
4	0	0	0	0	508	507	0	572	38	39	
5	0	0	0	0	507	507	0	557	38	40	
6	0	0	0	0	508	508	0	543	38	41	
7	0	0	0	0	507	508	0	533	39	42	
8	0	0	0	0	508	507	0	528	38	41	
9	0	0	0	0	510	506	0	526	38	41	
10	0	0	0	0	509	506	0	514	38	39	
11	0	0	0	0	506	505	0	505	38	38	
12	0	0	0	0	506	505	0	511	38	39	
13	0	0	0	0	510	505	0	526	38	40	
14	0	0	0	0	508	507	0	537	38	41	
15	0	0	0	0	507	505	0	531	39	41	
0	0	0	0	0	509	504	0	527	38	42	
1	0	0	0	0	506	504	0	531	38	41	
2	0	0	0	0	509	504	0	531	38	40	
3	0	0	0	0	510	504	0	540	38	39	
4	0	0	0	0	509	505	0	535	38	38	
5	0	0	0	0	510	506	0	516	38	39	
6	0	0	0	0	508	505	0	503	38	40	
7	0	0	0	0	508	506	0	496	39	41	
8	0	0	0	0	508	506	0	510	38	42	
9	0	0	0	0	510	507	0	519	38	41	
10	0	0	0	0	509	506	0	506	38	40	
11	0	0	0	0	509	507	0	489	38	39	
12	0	0	0	0	508	509	0	470	38	38	
13	0	0	0	0	508	510	0	467	38	39	
14	0	0	0	0	508	509	0	455	38	40	
15	0	0	0	0	510	508	0	458	39	41	
0	0	0	0	0	511	507	0	467	38	41	
1	0	0	0	0	510	508	0	467	38	41	
2	0	0	0	0	510	508	0	476	38	40	
3	0	0	0	0	509	506	0	466	38	39	
4	0	0	0	0	509	506	0	448	38	38	
5	0	0	0	0	509	507	0	443	38	39	
6	0	0	0	0	509	508	0	445	38	40	
7	0	0	0	0	509	508	0	451	39	41	
8	0	0	0	0	508	510	0	448	38	41	
9	0	0	0	0	507	509	0	444	38	41	
10	0	0	0	0	508	510	0	448	38	41	
11	0	0	0	0	507	512	0	460	38	39	
12	0	0	0	0	507	510	0	480	38	38	
13	0	0	0	0	508	510	0	520	38	38	
14	0	0	0	0	508	509	0	551	38	39	
15	0	0	0	0	510	508	0	558	38	40	
0	0	0	0	0	510	510	0	557	38	41	
1	0	0	0	0	511	510	0	552	38	41	
2	0	0	0	0	512	511	0	550	38	41	
3	0	0	0	0	511	510	0	541	38	40	
4	0	0	0	0	510	509	0	545	38	39	
5	0	0	0	0	511	509	0	544	38	38	
6	0	0	0	0	509	509	0	532	38	39	
7	0	0	0	0	507	508	0	520	39	40	
8	0	0	0	0	511	508	0	508	38	41	
9	0	0	0	0	510	510	0	508	38	41	
10	0	0	0	0	508	510	0	508	38	41	
11	0	0	0	0	508	510	0	497	38	40	
12	0	0	0	0	509	511	0	494	38	39	
13	0	0	0	0	511	508	0	495	38	38	
14	0	0	0	0	511	508	0	504	38	38	
15	0	0	0	0	508	508	0	508	39	39	
0	0	0	0	0	507	508	0	520	38	40	
1	0	0	0	0	499	507	0	515	38	41	
2	0	0	0	0	492	505	0	514	38	41	
3	0	0	0	0	494	507	0	514	38	41	
4	0	0	0	0	509	507	0	526	38	39	
5	0	0	0	0	526	507	0	529	38	38	
6	0	0	0	0	528	507	0	546	38	38	
7	0	0	0	0	532	506	0	562	39	39	
8	0	0	0	0	527	505	0	578	38	40	
9	0	0	0	0	521	506	0	579	38	41	
10	0	0	0	0	519	507	0	572	38	41	
11	0	0	0	0	510	507	0	569	38	41	
12	0	0	0	0	504	506	0	559	38	40	
13	0	0	0	0	504	507	0	547	38	39	
14	0	0	0	0	506	507	0	543	38	38	
15	0	0	0	0	508	508	0	544	39	39	
0	0	0	0	0	507	508	0	566	38	40	
1	0	0	0	0	507	509	0	557	38	41	
2	0	0	0	0	507	508	0	551	38	41	
3	0	0	0	0	500	508	0	524	38	41	
4	0	0	0	0	497	507	0	497	38	40	
5	0	0	0	0	501	508	0	491	38	39	
6	0	0	0	0	502	509	0	497	38	38	
7	0	0	0	0	503	510	0	503	38	38	
8	0	0	0	0	512	510	0	514	38	39	
9	0	0	0	0	526	507	0	523	38	40	
10	0	0	0	0	525	506	0	516	38	41	
11	0	0	0	0	516	507	0	497	38	41	
12	0	0	0	0	504	507	0	482	38	40	
13	0	0	0	0	507	508	0	475	38	39	
14	0	0	0	0	515	507	0	476	38	38	
15	0	0	0	0	521	508	0	464	39	38	
0	0	0	0	0	519	508	0	463	38	39	
1	0	0	0	0	517	506	0	480	38	40	
2	0	0	0	0	505	505	0	500	38	41	
3	0	0	0	0	496	506	0	519	38	41	
4	0	0	0	0	506	507	0	515	38	41	
5	0	0	0	0	526	508	0	509	38	40	
6	0	0	0	0	529	508	0	521	38	38	
7	0	0	0	0	519	509	0	527	38	38	
8	0	0	0	0	503	509	0	518	38	39	
9	0	0	0	0	495	507	0	504	38	40	
10	0	0	0	0	499	507	0	484	38	41	
11	0	0	0	0	504	508	0	476	38	41	
12	0	0	0	0	506	508	0	483	38	41	
13	0	0	0	0	510	507	0	493	38	40	
14	0	0	0	0	515	507	0	494	38	39	
15	0	0	0	0	519	505	0	500	38	38	
0	0	0	0	0	509	505	0	503	38	38	
1	0	0	0	0	508	505	0	501	38	39	
2	0	0	0	0	502	507	0	498	38	40	
3	0	0	0	0	502	508	0	493	38	41	
4	0	0	0	0	504	508	0	493	38	41	
5	0	0	0	0	503	507	0	505	38	40	
6	0	0	0	0	503	508	0	503	38	39	
7	0	0	0	0	504	508	0	489	39	38	
8	0	0	0	0	503	508	0	469	38	38	
9	0	0	0	0	499	509	0	479	38	39	
10	0	0	0	0	494	509	0	482	38	40	
11	0	0	0	0	491	509	0	496	38	41	
12	0	0	0	0	492	509	0	499	38	41	
13	0	0	0	0	496	510	0	532	38	41	
14	0	0	0	0	514	510	0	541	38	40	
15	0	0	0	0	534	512	0	554	39	39	
0	0	0	0	0	544	509	0	546	38	38	
1	0	0	0	0	526	508	0	528	38	39	
2	0	0	0	0	494	508	0	533	38	40	
3	0	0	0	0	479	509	0	530	38	41	
4	0	0	0	0	492	508	0	523	38	41	
5	0	0	0	0	503	507	0	508	38	41	
6	0	0	0	0	473	507	0	507	38	40	
7	0	0	0	0	445	507	0	506	39	39	
8	0	0	0	0	436	508	0	499	38	38	
9	0	0	0	0	461	508	0	497	38	38	
10	0	0	0	0	597	508	0	503	38	40	
11	0	0	0	0	719	507	0	513	38	40	
12	0	0	0	0	712	508	0	524	38	41	
13	0	0	0	0	576	509	0	529	38	41	
14	0	0	0	0	477	510	0	545	38	41	
15	0	0	0	0	462	510	0	562	39	39	
0	0	0	0	0	461	510	0	563	38	38	
1	0	0	0	0	479	511	0	544	38	38	
2	0	0	0	0	490	510	0	535	38	39	
3	0	0	0	0	491	512	0	542	38	40	
4	0	0	0	0	492	511	0	535	38	41	
5	0	0	0	0	490	511	0	526	38	41	
6	0	0	0	0	494	510	0	523	38	41	
7	0	0	0	0	496	510	0	527	39	40	
8	0	0	0	0	501	511	0	537	38	39	
9	0	0	0	0	504	509	0	532	38	38	
10	0	0	0	0	506	510	0	536	38	39	
11	0	0	0	0	507	509	0	524	38	40	
12	0	0	0	0	505	509	0	499	38	41	
13	0	0	0	0	504	509	0	484	38	41	
14	0	0	0	0	509	510	0	484	38	41	
15	0	0	0	0	510	509	0	491	39	40	
0	0	0	0	0	511	509	0	496	38	39	
1	0	0	0	0	508	509	0	495	38	38	
2	0	0	0	0	510	510	0	502	38	39	
3	0	0	0	0	510	510	0	513	38	40	
4	0	0	0	0	509	510	0	533	38	41	
5	0	0	0	0	511	509	0	530	38	41	
6	0	0	0	0	511	510	0	528	38	41	
7	0	0	0	0	510	510	0	524	39	41	
8	0	0	0	0	512	509	0	512	38	39	
9	0	0	0	0	509	510	0	498	38	38	
10	0	0	0	0	506	510	0	485	38	38	
11	0	0	0	0	510	508	0	483	38	39	
12	0	0	0	0	512	509	0	494	38	40	
13	0	0	0	0	514	508	0	499	38	41	
14	0	0	0	0	517	508	0	495	38	42	
15	0	0	0	0	518	509	0	489	39	41	
0	0	0	0	0	508	509	0	479	38	40	
1	0	0	0	0	503	509	0	489	38	39	
2	0	0	0	0	506	508	0	486	38	38	
3	0	0	0	0	507	508	0	481	38	39	
4	0	0	0	0	507	509	0	467	38	40	
5	0	0	0	0	508	508	0	462	38	41	
6	0	0	0	0	506	507	0	455	38	42	
7	0	0	0	0	498	507	0	451	38	41	
8	0	0	0	0	495	506	0	446	38	40	
9	0	0	0	0	507	507	0	440	38	39	
10	0	0	0	0	529	505	0	432	38	38	
11	0	0	0	0	531	505	0	437	38	39	
12	0	0	0	0	521	505	0	453	38	40	
13	0	0	0	0	508	505	0	464	38	41	
14	0	0	0	0	501	506	0	462	38	41	
15	0	0	0	0	504	505	0	449	39	42	
0	0	0	0	0	508	508	0	459	38	41	
1	0	0	0	0	509	509	0	481	38	40	
2	0	0	0	0	508	508	0	504	38	39	
3	0	0	0	0	510	507	0	512	38	39	
4	0	0	0	0	509	505	0	514	38	40	
5	0	0	0	0	509	507	0	508	38	41	
6	0	0	0	0	506	508	0	503	38	41	
7	0	0	0	0	500	507	0	508	39	42	
8	0	0	0	0	492	505	0	531	38	41	
9	0	0	0	0	498	505	0	550	38	40	
10	0	0	0	0	513	504	0	557	38	39	
11	0	0	0	0	516	505	0	556	38	39	
12	0	0	0	0	518	504	0	559	38	39	
13	0	0	0	0	505	506	0	550	38	40	
14	0	0	0	0	515	508	0	536	38	41	
15	0	0	0	0	521	508	0	531	39	42	
0	0	0	0	0	528	508	0	539	38	42	
1	0	0	0	0	517	508	0	555	38	41	
2	0	0	0	0	490	508	0	568	38	39	
3	0	0	0	0	508	509	0	571	38	39	
4	0	0	0	0	519	509	0	564	38	39	
5	0	0	0	0	541	508	0	569	38	40	
6	0	0	0	0	537	508	0	583	38	41	
7	0	0	0	0	516	508	0	575	39	42	
8	0	0	0	0	495	508	0	560	38	42	
9	0	0	0	0	492	510	0	565	38	41	
10	0	0	0	0	496	508	0	573	38	40	
11	0	0	0	0	499	508	0	581	38	39	
12	0	0	0	0	495	507	0	577	38	39	
13	0	0	0	0	501	505	0	572	38	40	
14	0	0	0	0	511	505	0	574	38	41	
15	0	0	0	0	507	505	0	573	39	41	
0	0	0	0	0	505	505	0	561	38	42	
1	0	0	0	0	504	506	0	541	38	41	
2	0	0	0	0	511	508	0	524	38	40	
3	0	0	0	0	524	508	0	505	38	39	
4	0	0	0	0	531	507	0	488	38	39	
5	0	0	0	0	520	507	0	481	38	39	
6	0	0	0	0	504	507	0	471	38	40	
7	0	0	0	0	497	507	0	460	39	41	
8	0	0	0	0	499	507	0	463	38	42	
9	0	0	0	0	502	508	0	485	38	42	
10	0	0	0	0	507	509	0	514	38	41	
11	0	0	0	0	505	508	0	530	38	39	
12	0	0	0	0	504	507	0	549	38	39	
13	0	0	0	0	502	507	0	551	38	39	
14	0	0	0	0	507	508	0	553	38	40	
15	0	0	0	0	508	508	0	535	39	41	
0	0	0	0	0	510	508	0	527	38	42	
1	0	0	0	0	510	508	0	511	38	42	
2	0	0	0	0	505	507	0	493	38	41	
3	0	0	0	0	506	506	0	494	38	40	
4	0	0	0	0	514	506	0	503	38	39	
5	0	0	0	0	511	505	0	516	38	39	
6	0	0	0	0	508	505	0	515	38	40	
7	0	0	0	0	505	504	0	511	39	41	
8	0	0	0	0	503	505	0	507	38	42	
9	0	0	0	0	502	505	0	513	38	42	
10	0	0	0	0	511	505	0	515	38	41	
11	0	0	0	0	521	505	0	515	38	40	
12	0	0	0	0	519	507	0	516	38	39	
13	0	0	0	0	516	507	0	519	38	39	
14	0	0	0	0	515	506	0	523	38	39	
15	0	0	0	0	508	507	0	519	39	40	
0	0	0	0	0	504	507	0	510	38	41	
1	0	0	0	0	506	508	0	508	38	42	
2	0	0	0	0	510	507	0	504	38	42	
3	0	0	0	0	507	507	0	491	38	41	
4	0	0	0	0	511	506	0	467	38	39	
5	0	0	0	0	508	505	0	435	38	39	
6	0	0	0	0	508	507	0	400	38	39	
7	0	0	0	0	506	509	0	398	39	40	
8	0	0	0	0	504	508	0	433	38	41	
9	0	0	0	0	504	508	0	473	38	42	
10	0	0	0	0	505	507	0	499	38	42	
11	0	0	0	0	504	507	0	519	38	41	
12	0	0	0	0	504	508	0	550	38	40	
13	0	0	0	0	507	508	0	568	38	39	
14	0	0	0	0	516	509	0	565	38	39	
15	0	0	0	0	511	508	0	550	39	40	
0	0	0	0	0	509	506	0	531	38	41	
1	0	0	0	0	511	507	0	547	38	42	
2	0	0	0	0	513	508	0	559	38	42	
3	0	0	0	0	514	508	0	553	38	41	
4	0	0	0	0	508	509	0	538	38	40	
5	0	0	0	0	499	509	0	518	38	39	
6	0	0	0	0	490	511	0	504	38	39	
7	0	0	0	0	490	511	0	494	39	39	
8	0	0	0	0	496	510	0	484	38	40	
9	0	0	0	0	496	508	0	491	38	41	
10	0	0	0	0	508	508	0	507	38	42	
11	0	0	0	0	529	509	0	519	38	42	
12	0	0	0	0	545	510	0	527	38	41	
13	0	0	0	0	547	510	0	539	38	39	
14	0	0	0	0	526	510	0	548	38	39	
15	0	0	0	0	508	509	0	559	39	39	
0	0	0	0	0	489	509	0	565	38	40	
1	0	0	0	0	491	508	0	568	38	41	
2	0	0	0	0	497	507	0	566	38	42	
3	0	0	0	0	502	506	0	560	38	42	
4	0	0	0	0	504	506	0	560	38	41	
5	0	0	0	0	512	507	0	551	38	40	
6	0	0	0	0	519	508	0	529	38	39	
7	0	0	0	0	519	508	0	512	39	39	
8	0	0	0	0	502	506	0	492	38	40	
9	0	0	0	0	494	504	0	489	38	41	
10	0	0	0	0	488	505	0	498	38	42	
11	0	0	0	0	496	507	0	508	38	42	
12	0	0	0	0	513	508	0	512	38	41	
13	0	0	0	0	517	509	0	508	38	40	
14	0	0	0	0	508	509	0	499	38	39	
15	0	0	0	0	499	507	0	487	38	39	
0	0	0	0	0	507	507	0	492	38	39	
1	0	0	0	0	523	508	0	492	38	40	
2	0	0	0	0	526	508	0	491	38	41	
3	0	0	0	0	518	507	0	484	38	42	
4	0	0	0	0	511	508	0	473	38	42	
5	0	0	0	0	503	508	0	470	38	41	
6	0	0	0	0	535	507	0	463	38	39	
7	0	0	0	0	530	508	0	454	38	39	
8	0	0	0	0	513	508	0	457	38	39	
9	0	0	0	0	504	508	0	471	38	40	
10	0	0	0	0	499	508	0	480	38	41	
11	0	0	0	0	501	507	0	476	38	42	
12	0	0	0	0	503	509	0	467	38	42	
13	0	0	0	0	504	510	0	457	38	41	
14	0	0	0	0	505	508	0	452	38	40	
15	0	0	0	0	502	509	0	459	38	39	
0	0	0	0	0	504	508	0	465	38	39	
1	0	0	0	0	503	510	0	480	38	40	
2	0	0	0	0	492	509	0	494	38	41	
3	0	0	0	0	493	510	0	501	38	42	
4	0	0	0	0	487	509	0	518	38	42	
5	0	0	0	0	499	510	0	530	38	41	
6	0	0	0	0	528	509	0	523	38	40	
7	0	0	0	0	531	508	0	517	39	39	
8	0	0	0	0	511	508	0	515	38	39	
9	0	0	0	0	460	508	0	525	38	39	
10	0	0	0	0	467	508	0	536	38	41	
11	0	0	0	0	532	508	0	543	38	41	
12	0	0	0	0	588	508	0	538	38	42	
13	0	0	0	0	578	506	0	517	38	42	
14	0	0	0	0	547	505	0	502	38	41	
15	0	0	0	0	513	504	0	491	39	39	
0	0	0	0	0	510	506	0	489	38	39	
1	0	0	0	0	518	505	0	494	38	39	
2	0	0	0	0	496	504	0	504	38	40	
3	0	0	0	0	479	505	0	518	38	41	
4	0	0	0	0	467	508	0	529	38	42	
5	0	0	0	0	480	509	0	532	38	42	
6	0	0	0	0	512	510	0	536	38	41	
7	0	0	0	0	514	510	0	528	39	40	
8	0	0	0	0	541	512	0	523	38	39	
9	0	0	0	0	520	510	0	530	38	39	
10	0	0	0	0	529	508	0	537	38	40	
11	0	0	0	0	529	507	0	536	38	41	
12	0	0	0	0	524	508	0	539	38	42	
13	0	0	0	0	501	508	0	549	38	42	
14	0	0	0	0	472	508	0	555	38	41	
15	0	0	0	0	486	508	0	561	39	40	
0	0	0	0	0	470	508	0	574	38	39	
1	0	0	0	0	462	507	0	582	38	39	
2	0	0	0	0	460	507	0	579	38	40	
3	0	0	0	0	476	505	0	579	38	41	
4	0	0	0	0	526	504	0	560	38	42	
5	0	0	0	0	578	504	0	526	38	42	
6	0	0	0	0	586	504	0	507	38	42	
7	0	0	0	0	533	504	0	494	39	41	
8	0	0	0	0	505	504	0	490	38	39	
9	0	0	0	0	502	505	0	508	38	39	
10	0	0	0	0	496	506	0	526	38	39	
11	0	0	0	0	500	506	0	528	38	40	
12	0	0	0	0	511	507	0	518	38	41	
13	0	0	0	0	548	507	0	503	38	42	
14	0	0	0	0	554	505	0	499	38	42	
15	0	0	0	0	544	506	0	503	39	41	
0	0	0	0	0	520	506	0	519	38	40	
1	0	0	0	0	498	508	0	539	38	39	
2	0	0	0	0	496	509	0	536	38	39	
3	0	0	0	0	497	509	0	512	38	40	
4	0	0	0	0	496	510	0	492	38	41	
5	0	0	0	0	498	510	0	480	38	42	
6	0	0	0	0	498	510	0	476	38	42	
7	0	0	0	0	500	509	0	471	39	42	
8	0	0	0	0	503	508	0	459	38	40	
9	0	0	0	0	503	508	0	460	38	39	
10	0	0	0	0	506	508	0	470	38	39	
11	0	0	0	0	505	506	0	475	38	40	
12	0	0	0	0	507	507	0	483	38	41	
13	0	0	0	0	508	506	0	500	38	42	
14	0	0	0	0	507	507	0	521	38	42	
15	0	0	0	0	508	509	0	543	39	42	
0	0	0	0	0	510	509	0	560	38	41	
1	0	0	0	0	508	508	0	555	38	40	
2	0	0	0	0	511	510	0	552	38	39	
3	0	0	0	0	508	508	0	563	38	39	
4	0	0	0	0	508	507	0	574	38	40	
5	0	0	0	0	510	508	0	569	38	41	
6	0	0	0	0	511	508	0	555	38	42	
7	0	0	0	0	510	508	0	541	39	42	
8	0	0	0	0	508	506	0	548	38	41	
9	0	0	0	0	507	507	0	561	38	40	
10	0	0	0	0	502	507	0	579	38	39	
11	0	0	0	0	499	507	0	582	38	39	
12	0	0	0	0	508	508	0	587	38	40	
13	0	0	0	0	528	508	0	589	38	41	
14	0	0	0	0	529	508	0	591	38	42	
15	0	0	0	0	519	509	0	583	39	42	
0	0	0	0	0	505	507	0	567	38	42	
1	0	0	0	0	501	507	0	554	38	41	
2	0	0	0	0	509	507	0	548	38	39	
3	0	0	0	0	512	508	0	542	38	39	
4	0	0	0	0	509	507	0	547	38	40	
5	0	0	0	0	507	507	0	559	38	41	
6	0	0	0	0	507	508	0	560	38	42	
7	0	0	0	0	508	508	0	567	39	42	
8	0	0	0	0	508	508	0	575	38	42	
9	0	0	0	0	514	507	0	573	38	41	
10	0	0	0	0	511	506	0	580	38	40	
11	0	0	0	0	510	507	0	585	38	39	
12	0	0	0	0	508	506	0	583	38	40	
13	0	0	0	0	509	506	0	587	38	41	
14	0	0	0	0	507	508	0	577	38	42	
15	0	0	0	0	508	508	0	575	39	42	
0	0	0	0	0	510	508	0	566	38	42	
1	0	0	0	0	508	510	0	557	38	42	
2	0	0	0	0	509	510	0	555	38	40	
3	0	0	0	0	507	510	0	543	38	39	
4	0	0	0	0	510	511	0	522	38	39	
5	0	0	0	0	508	511	0	508	38	40	
6	0	0	0	0	510	510	0	507	38	41	
7	0	0	0	0	509	508	0	499	38	42	
8	0	0	0	0	509	508	0	483	38	43	
9	0	0	0	0	507	505	0	467	38	42	
10	0	0	0	0	508	506	0	455	38	41	
11	0	0	0	0	509	506	0	447	38	40	
12	0	0	0	0	509	504	0	444	38	39	
13	0	0	0	0	508	505	0	450	38	40	
14	0	0	0	0	507	506	0	443	38	41	
15	0	0	0	0	507	506	0	435	39	42	
0	0	0	0	0	508	506	0	440	38	43	
1	0	0	0	0	509	508	0	449	38	42	
2	0	0	0	0	507	508	0	475	38	41	
3	0	0	0	0	500	509	0	491	38	40	
4	0	0	0	0	499	509	0	496	38	39	
5	0	0	0	0	491	508	0	500	38	40	
6	0	0	0	0	487	507	0	486	38	41	
7	0	0	0	0	487	509	0	478	39	42	
8	0	0	0	0	512	510	0	497	38	43	
9	0	0	0	0	540	510	0	507	38	43	
10	0	0	0	0	545	508	0	503	38	42	
11	0	0	0	0	540	508	0	499	38	41	
12	0	0	0	0	532	508	0	485	38	40	
13	0	0	0	0	498	508	0	478	38	40	
14	0	0	0	0	478	508	0	477	38	41	
15	0	0	0	0	479	508	0	479	39	42	
0	0	0	0	0	505	508	0	492	38	43	
1	0	0	0	0	560	507	0	486	38	43	
2	0	0	0	0	566	506	0	489	38	42	
3	0	0	0	0	532	506	0	479	38	41	
4	0	0	0	0	470	506	0	473	38	40	
5	0	0	0	0	433	505	0	471	38	40	
6	0	0	0	0	454	505	0	462	38	41	
7	0	0	0	0	489	504	0	455	39	42	
8	0	0	0	0	504	507	0	446	38	43	
9	0	0	0	0	531	508	0	449	38	43	
10	0	0	0	0	546	508	0	467	38	43	
11	0	0	0	0	554	508	0	484	38	42	
12	0	0	0	0	531	508	0	488	38	40	
13	0	0	0	0	510	507	0	490	38	40	
14	0	0	0	0	502	507	0	496	38	40	
15	0	0	0	0	497	508	0	495	39	41	
0	0	0	0	0	494	508	0	494	38	42	
1	0	0	0	0	489	506	0	476	38	43	
2	0	0	0	0	490	506	0	452	38	43	
3	0	0	0	0	500	507	0	446	38	42	
4	0	0	0	0	503	509	0	449	38	41	
5	0	0	0	0	508	509	0	465	38	40	
6	0	0	0	0	514	511	0	496	38	40	
7	0	0	0	0	505	510	0	524	39	41	
8	0	0	0	0	493	511	0	535	38	42	
9	0	0	0	0	496	510	0	529	38	43	
10	0	0	0	0	511	509	0	530	38	43	
11	0	0	0	0	509	508	0	534	38	43	
12	0	0	0	0	500	506	0	536	38	42	
13	0	0	0	0	510	506	0	535	38	40	
14	0	0	0	0	540	508	0	523	38	40	
15	0	0	0	0	555	508	0	517	39	41	
0	0	0	0	0	550	508	0	501	38	42	
1	0	0	0	0	525	510	0	491	38	43	
2	0	0	0	0	495	508	0	494	38	43	
3	0	0	0	0	508	509	0	498	38	43	
4	0	0	0	0	527	509	0	503	38	42	
5	0	0	0	0	531	510	0	491	38	41	
6	0	0	0	0	506	509	0	477	38	40	
7	0	0	0	0	491	508	0	466	39	41	
8	0	0	0	0	501	507	0	463	38	42	
9	0	0	0	0	502	508	0	455	38	43	
10	0	0	0	0	496	508	0	463	38	43	
11	0	0	0	0	495	508	0	477	38	43	
12	0	0	0	0	499	508	0	483	38	43	
13	0	0	0	0	502	507	0	486	38	41	
14	0	0	0	0	503	508	0	493	38	40	
15	0	0	0	0	504	509	0	496	39	40	
0	0	0	0	0	507	508	0	497	38	42	
1	0	0	0	0	508	507	0	498	38	43	
2	0	0	0	0	509	506	0	488	38	43	
3	0	0	0	0	507	504	0	478	38	44	
4	0	0	0	0	508	506	0	461	38	43	
5	0	0	0	0	509	507	0	448	38	42	
6	0	0	0	0	507	508	0	457	38	41	
7	0	0	0	0	509	509	0	472	38	40	
8	0	0	0	0	512	510	0	477	38	41	
9	0	0	0	0	516	508	0	469	38	42	
10	0	0	0	0	522	508	0	463	38	43	
11	0	0	0	0	520	508	0	455	38	44	
12	0	0	0	0	496	508	0	443	38	43	
13	0	0	0	0	487	508	0	441	38	42	
14	0	0	0	0	507	508	0	434	38	41	
15	0	0	0	0	510	508	0	429	38	40	
0	0	0	0	0	509	510	0	428	38	41	
1	0	0	0	0	511	510	0	435	38	42	
2	0	0	0	0	511	508	0	452	38	43	
3	0	0	0	0	509	508	0	452	38	44	
4	0	0	0	0	509	508	0	447	38	44	
5	0	0	0	0	512	508	0	458	38	43	
6	0	0	0	0	512	508	0	459	38	42	
7	0	0	0	0	512	508	0	455	38	41	
8	0	0	0	0	511	508	0	447	38	41	
9	0	0	0	0	508	506	0	431	38	42	
10	0	0	0	0	510	508	0	429	38	43	
11	0	0	0	0	509	507	0	427	38	44	
12	0	0	0	0	509	508	0	438	38	44	
13	0	0	0	0	508	509	0	445	38	43	
14	0	0	0	0	508	507	0	446	38	42	
15	0	0	0	0	508	507	0	458	39	41	
0	0	0	0	0	508	507	0	472	38	41	
1	0	0	0	0	510	508	0	479	38	41	
2	0	0	0	0	508	508	0	480	38	43	
3	0	0	0	0	508	508	0	483	38	43	
4	0	0	0	0	509	507	0	488	38	44	
5	0	0	0	0	510	508	0	494	38	44	
6	0	0	0	0	508	509	0	494	38	43	
7	0	0	0	0	509	509	0	494	39	41	
8	0	0	0	0	509	508	0	493	38	41	
9	0	0	0	0	510	509	0	499	38	41	
10	0	0	0	0	511	508	0	505	38	42	
11	0	0	0	0	510	509	0	500	38	43	
12	0	0	0	0	511	510	0	504	38	44	
13	0	0	0	0	510	510	0	504	38	44	
14	0	0	0	0	509	511	0	515	38	43	
15	0	0	0	0	510	512	0	517	39	42	
0	0	0	0	0	508	511	0	514	38	41	
1	0	0	0	0	511	510	0	516	38	41	
2	0	0	0	0	510	509	0	517	38	42	
3	0	0	0	0	509	508	0	522	38	43	
4	0	0	0	0	509	507	0	523	38	44	
5	0	0	0	0	508	507	0	539	38	44	
6	0	0	0	0	507	507	0	562	38	43	
7	0	0	0	0	509	507	0	566	39	42	
8	0	0	0	0	510	507	0	568	38	41	
9	0	0	0	0	510	507	0	572	38	41	
10	0	0	0	0	509	506	0	560	38	42	
11	0	0	0	0	511	507	0	544	38	43	
12	0	0	0	0	509	507	0	520	38	43	
13	0	0	0	0	510	507	0	507	38	44	
14	0	0	0	0	510	506	0	485	38	44	
15	0	0	0	0	507	506	0	468	39	43	
0	0	0	0	0	511	507	0	478	38	41	
1	0	0	0	0	510	506	0	482	38	41	
2	0	0	0	0	510	505	0	494	38	41	
3	0	0	0	0	510	506	0	519	38	42	
4	0	0	0	0	509	507	0	559	38	43	
5	0	0	0	0	509	505	0	561	38	44	
6	0	0	0	0	509	506	0	556	38	44	
7	0	0	0	0	511	507	0	550	39	43	
8	0	0	0	0	508	507	0	548	38	42	
9	0	0	0	0	509	507	0	546	38	41	
10	0	0	0	0	509	506	0	535	38	41	
11	0	0	0	0	509	504	0	519	38	42	
12	0	0	0	0	508	504	0	506	38	43	
13	0	0	0	0	512	504	0	490	38	44	
14	0	0	0	0	511	506	0	481	38	44	
15	0	0	0	0	511	507	0	481	39	43	
0	0	0	0	0	510	508	0	482	38	42	
1	0	0	0	0	507	505	0	491	38	41	
2	0	0	0	0	507	505	0	487	38	41	
3	0	0	0	0	507	504	0	479	38	42	
4	0	0	0	0	508	504	0	484	38	43	
5	0	0	0	0	507	506	0	475	38	43	
6	0	0	0	0	509	507	0	480	38	44	
7	0	0	0	0	509	508	0	484	39	44	
8	0	0	0	0	510	508	0	487	38	43	
9	0	0	0	0	509	508	0	486	38	41	
10	0	0	0	0	511	507	0	492	38	41	
11	0	0	0	0	508	507	0	516	38	41	
12	0	0	0	0	509	509	0	532	38	42	
13	0	0	0	0	510	507	0	540	38	43	
14	0	0	0	0	508	508	0	540	38	44	
15	0	0	0	0	499	508	0	542	39	44	
0	0	0	0	0	503	508	0	551	38	43	
1	0	0	0	0	521	508	0	547	38	42	
2	0	0	0	0	529	508	0	526	38	41	
3	0	0	0	0	523	511	0	523	38	41	
4	0	0	0	0	505	511	0	538	38	42	
5	0	0	0	0	495	511	0	557	38	43	
6	0	0	0	0	502	511	0	571	38	44	
7	0	0	0	0	505	512	0	556	39	44	
8	0	0	0	0	512	511	0	554	38	43	
9	0	0	0	0	512	510	0	536	38	42	
10	0	0	0	0	512	511	0	531	38	41	
11	0	0	0	0	512	511	0	528	38	41	
12	0	0	0	0	510	508	0	524	38	42	
13	0	0	0	0	510	509	0	508	38	43	
14	0	0	0	0	509	508	0	487	38	44	
15	0	0	0	0	507	507	0	474	39	44	
0	0	0	0	0	505	506	0	480	38	44	
1	0	0	0	0	505	507	0	508	38	43	
2	0	0	0	0	512	504	0	526	38	41	
3	0	0	0	0	515	505	0	536	38	41	
4	0	0	0	0	511	505	0	551	38	41	
5	0	0	0	0	508	507	0	559	38	42	
6	0	0	0	0	510	506	0	571	38	43	
7	0	0	0	0	510	506	0	580	39	44	
8	0	0	0	0	512	506	0	572	38	44	
9	0	0	0	0	511	506	0	561	38	43	
10	0	0	0	0	509	506	0	563	38	42	
11	0	0	0	0	510	505	0	563	38	41	
12	0	0	0	0	509	506	0	551	38	41	
13	0	0	0	0	508	508	0	546	38	42	
14	0	0	0	0	508	508	0	524	38	43	
15	0	0	0	0	511	508	0	531	39	44	
0	0	0	0	0	507	507	0	540	38	44	
1	0	0	0	0	508	508	0	543	38	44	
2	0	0	0	0	508	508	0	534	38	42	
3	0	0	0	0	508	507	0	536	38	41	
4	0	0	0	0	507	507	0	541	38	41	
5	0	0	0	0	507	506	0	533	38	42	
6	0	0	0	0	508	506	0	512	38	43	
7	0	0	0	0	506	508	0	493	39	44	
8	0	0	0	0	508	507	0	491	38	44	
9	0	0	0	0	511	507	0	505	38	44	
10	0	0	0	0	509	507	0	522	38	43	
11	0	0	0	0	509	506	0	527	38	41	
12	0	0	0	0	508	506	0	522	38	41	
13	0	0	0	0	510	506	0	530	38	41	
14	0	0	0	0	510	506	0	537	38	42	
15	0	0	0	0	510	505	0	524	39	43	
0	0	0	0	0	511	505	0	499	38	44	
1	0	0	0	0	511	507	0	491	38	44	
2	0	0	0	0	508	504	0	496	38	43	
3	0	0	0	0	510	507	0	509	38	42	
4	0	0	0	0	510	509	0	524	38	41	
5	0	0	0	0	509	509	0	535	38	41	
6	0	0	0	0	509	509	0	531	38	42	
7	0	0	0	0	508	508	0	519	39	43	
8	0	0	0	0	508	506	0	505	38	44	
9	0	0	0	0	508	506	0	492	38	44	
10	0	0	0	0	508	508	0	471	38	44	
11	0	0	0	0	508	508	0	456	38	42	
12	0	0	0	0	507	508	0	462	38	41	
13	0	0	0	0	508	508	0	479	38	41	
14	0	0	0	0	509	508	0	507	38	42	
15	0	0	0	0	509	508	0	539	39	43	
0	0	0	0	0	510	506	0	555	38	44	
1	0	0	0	0	508	505	0	559	38	44	
2	0	0	0	0	508	506	0	542	38	44	
3	0	0	0	0	507	504	0	527	38	43	
4	0	0	0	0	507	505	0	511	38	41	
5	0	0	0	0	506	504	0	499	38	41	
6	0	0	0	0	508	505	0	487	38	41	
7	0	0	0	0	508	506	0	472	38	43	
8	0	0	0	0	510	508	0	463	38	43	
9	0	0	0	0	508	508	0	456	38	44	
10	0	0	0	0	506	506	0	449	38	44	
11	0	0	0	0	508	506	0	443	38	43	
12	0	0	0	0	509	507	0	446	38	42	
13	0	0	0	0	508	508	0	465	38	41	
14	0	0	0	0	509	506	0	488	38	41	
15	0	0	0	0	508	506	0	482	39	42	
0	0	0	0	0	511	506	0	499	38	43	
1	0	0	0	0	509	507	0	523	38	44	
2	0	0	0	0	510	507	0	535	38	44	
3	0	0	0	0	510	507	0	537	38	44	
4	0	0	0	0	509	506	0	536	38	42	
5	0	0	0	0	511	508	0	535	38	41	
6	0	0	0	0	512	509	0	526	38	41	
7	0	0	0	0	510	507	0	508	39	42	
8	0	0	0	0	510	507	0	492	38	43	
9	0	0	0	0	511	508	0	483	38	44	
10	0	0	0	0	509	508	0	487	38	44	
11	0	0	0	0	508	506	0	490	38	44	
12	0	0	0	0	509	505	0	506	38	43	
13	0	0	0	0	509	506	0	517	38	41	
14	0	0	0	0	509	505	0	524	38	41	
15	0	0	0	0	510	505	0	525	39	41	
0	0	0	0	0	508	504	0	513	38	42	
1	0	0	0	0	511	503	0	520	38	43	
2	0	0	0	0	510	504	0	523	38	44	
3	0	0	0	0	511	505	0	511	38	44	
4	0	0	0	0	509	505	0	498	38	43	
5	0	0	0	0	509	505	0	487	38	42	
6	0	0	0	0	509	505	0	472	38	41	
7	0	0	0	0	510	505	0	444	38	41	
8	0	0	0	0	508	505	0	447	38	42	
9	0	0	0	0	510	506	0	442	38	43	
10	0	0	0	0	508	504	0	443	38	44	
11	0	0	0	0	508	503	0	451	38	44	
12	0	0	0	0	510	504	0	462	38	44	
13	0	0	0	0	510	505	0	474	38	42	
14	0	0	0	0	508	505	0	486	38	41	
15	0	0	0	0	508	506	0	491	38	41	
0	0	0	0	0	508	505	0	495	38	42	
1	0	0	0	0	508	505	0	488	38	43	
2	0	0	0	0	508	507	0	473	38	44	
3	0	0	0	0	509	507	0	477	38	44	
4	0	0	0	0	510	506	0	483	38	44	
5	0	0	0	0	509	506	0	488	38	43	
6	0	0	0	0	507	506	0	487	38	41	
7	0	0	0	0	510	507	0	494	38	41	
8	0	0	0	0	508	508	0	511	38	41	
9	0	0	0	0	507	510	0	537	38	42	
10	0	0	0	0	510	511	0	543	38	43	
11	0	0	0	0	510	511	0	522	38	44	
12	0	0	0	0	511	512	0	500	38	44	
13	0	0	0	0	510	511	0	495	38	43	
14	0	0	0	0	508	510	0	485	38	42	
15	0	0	0	0	509	510	0	481	38	41	
0	0	0	0	0	510	510	0	478	38	41	
1	0	0	0	0	509	511	0	472	38	42	
2	0	0	0	0	508	510	0	479	38	43	
3	0	0	0	0	510	510	0	474	38	44	
4	0	0	0	0	511	508	0	481	38	44	
5	0	0	0	0	508	510	0	484	38	43	
6	0	0	0	0	508	510	0	472	38	42	
7	0	0	0	0	509	510	0	469	39	41	
8	0	0	0	0	507	511	0	468	38	41	
9	0	0	0	0	508	509	0	468	38	42	
10	0	0	0	0	507	508	0	478	38	43	
11	0	0	0	0	508	509	0	481	38	43	
12	0	0	0	0	510	510	0	499	38	44	
13	0	0	0	0	510	508	0	507	38	44	
14	0	0	0	0	510	508	0	501	38	43	
15	0	0	0	0	510	508	0	518	38	41	
0	0	0	0	0	510	508	0	529	38	41	
1	0	0	0	0	509	507	0	531	38	41	
2	0	0	0	0	509	508	0	536	38	42	
3	0	0	0	0	508	506	0	540	38	43	
4	0	0	0	0	510	505	0	542	38	44	
5	0	0	0	0	508	507	0	542	38	44	
6	0	0	0	0	508	507	0	524	38	43	
7	0	0	0	0	511	508	0	513	39	42	
8	0	0	0	0	511	508	0	490	38	41	
9	0	0	0	0	510	508	0	470	38	41	
10	0	0	0	0	508	508	0	459	38	42	
11	0	0	0	0	508	508	0	455	38	43	
12	0	0	0	0	509	509	0	460	38	44	
13	0	0	0	0	509	507	0	475	38	44	
14	0	0	0	0	510	507	0	486	38	43	
15	0	0	0	0	509	505	0	502	39	42	
0	0	0	0	0	510	506	0	522	38	41	
1	0	0	0	0	510	507	0	523	38	41	
2	0	0	0	0	509	508	0	521	38	42	
3	0	0	0	0	509	508	0	515	38	43	
4	0	0	0	0	510	508	0	511	38	43	
5	0	0	0	0	512	510	0	510	38	44	
6	0	0	0	0	511	511	0	506	38	43	
7	0	0	0	0	508	511	0	483	39	42	
8	0	0	0	0	509	510	0	460	38	41	
9	0	0	0	0	508	511	0	442	38	41	
10	0	0	0	0	509	511	0	436	38	41	
11	0	0	0	0	509	513	0	437	38	42	
12	0	0	0	0	508	513	0	450	38	43	
13	0	0	0	0	508	512	0	458	38	44	
14	0	0	0	0	508	511	0	453	38	44	
15	0	0	0	0	508	510	0	457	39	43	
0	0	0	0	0	509	512	0	467	38	42	
1	0	0	0	0	509	512	0	485	38	41	
2	0	0	0	0	507	512	0	490	38	41	
3	0	0	0	0	508	511	0	493	38	42	
4	0	0	0	0	507	511	0	498	38	43	
5	0	0	0	0	507	511	0	508	38	43	
6	0	0	0	0	507	510	0	515	38	44	
7	0	0	0	0	509	510	0	518	39	43	
8	0	0	0	0	509	509	0	524	38	42	
9	0	0	0	0	507	509	0	537	38	41	
10	0	0	0	0	510	510	0	548	38	41	
11	0	0	0	0	510	508	0	550	38	41	
12	0	0	0	0	507	508	0	547	38	42	
13	0	0	0	0	507	509	0	540	38	43	
14	0	0	0	0	510	509	0	544	38	44	
15	0	0	0	0	510	510	0	552	39	43	
0	0	0	0	0	510	509	0	553	38	42	
1	0	0	0	0	510	508	0	560	38	41	
2	0	0	0	0	509	508	0	565	38	40	
3	0	0	0	0	510	510	0	568	38	41	
4	0	0	0	0	510	510	0	585	38	42	
5	0	0	0	0	509	512	0	594	38	43	
6	0	0	0	0	508	511	0	584	38	44	
7	0	0	0	0	511	510	0	573	39	44	
8	0	0	0	0	509	510	0	569	38	43	
9	0	0	0	0	509	511	0	575	38	41	
10	0	0	0	0	508	510	0	583	38	40	
11	0	0	0	0	510	509	0	584	38	41	
12	0	0	0	0	509	508	0	578	38	42	
13	0	0	0	0	508	511	0	580	38	43	
14	0	0	0	0	509	512	0	579	38	43	
15	0	0	0	0	510	513	0	568	39	44	
0	0	0	0	0	510	514	0	551	38	43	
1	0	0	0	0	509	514	0	536	38	42	
2	0	0	0	0	509	513	0	531	38	41	
3	0	0	0	0	510	511	0	535	38	40	
4	0	0	0	0	509	509	0	529	38	41	
5	0	0	0	0	509	510	0	522	38	42	
6	0	0	0	0	509	510	0	520	38	43	
7	0	0	0	0	510	511	0	520	39	44	
8	0	0	0	0	510	510	0	522	38	43	
9	0	0	0	0	510	509	0	517	38	42	
10	0	0	0	0	510	508	0	502	38	41	
11	0	0	0	0	509	509	0	487	38	40	
12	0	0	0	0	509	508	0	487	38	41	
13	0	0	0	0	510	509	0	495	38	42	
14	0	0	0	0	509	509	0	496	38	43	
15	0	0	0	0	508	508	0	502	39	43	
0	0	0	0	0	509	508	0	503	38	43	
1	0	0	0	0	508	510	0	512	38	42	
2	0	0	0	0	511	508	0	523	38	41	
3	0	0	0	0	509	508	0	528	38	40	
4	0	0	0	0	508	509	0	526	38	40	
5	0	0	0	0	511	510	0	527	38	41	
6	0	0	0	0	510	510	0	542	38	42	
7	0	0	0	0	510	510	0	553	39	43	
8	0	0	0	0	508	509	0	556	38	43	
9	0	0	0	0	507	508	0	534	38	43	
10	0	0	0	0	510	508	0	509	38	42	
11	0	0	0	0	507	509	0	490	38	40	
12	0	0	0	0	509	510	0	483	38	40	
13	0	0	0	0	509	508	0	492	38	41	
14	0	0	0	0	510	508	0	504	38	42	
15	0	0	0	0	507	508	0	527	39	43	
0	0	0	0	0	509	509	0	516	38	43	
1	0	0	0	0	508	507	0	502	38	43	
2	0	0	0	0	508	508	0	487	38	42	
3	0	0	0	0	509	509	0	471	38	41	
4	0	0	0	0	510	510	0	480	38	40	
5	0	0	0	0	508	510	0	494	38	41	
6	0	0	0	0	507	508	0	500	38	42	
7	0	0	0	0	509	509	0	510	39	43	
8	0	0	0	0	508	508	0	514	38	43	
9	0	0	0	0	511	508	0	515	38	43	
10	0	0	0	0	509	507	0	507	38	42	
11	0	0	0	0	508	508	0	504	38	41	
12	0	0	0	0	511	507	0	509	38	40	
13	0	0	0	0	513	508	0	516	38	40	
14	0	0	0	0	512	509	0	535	38	41	
15	0	0	0	0	511	509	0	560	39	42	
0	0	0	0	0	507	508	0	551	38	43	
1	0	0	0	0	510	508	0	536	38	43	
2	0	0	0	0	508	508	0	522	38	43	
3	0	0	0	0	509	507	0	508	38	41	
4	0	0	0	0	510	507	0	518	38	40	
5	0	0	0	0	510	507	0	521	38	40	
6	0	0	0	0	509	505	0	526	38	41	
7	0	0	0	0	511	505	0	537	39	42	
8	0	0	0	0	510	507	0	556	38	43	
9	0	0	0	0	509	506	0	572	38	43	
10	0	0	0	0	508	505	0	584	38	43	
11	0	0	0	0	509	508	0	588	38	42	
12	0	0	0	0	509	508	0	596	38	41	
13	0	0	0	0	508	505	0	588	38	40	
14	0	0	0	0	509	507	0	579	38	41	
15	0	0	0	0	510	508	0	557	39	42	
0	0	0	0	0	508	509	0	539	38	42	
1	0	0	0	0	510	508	0	518	38	43	
2	0	0	0	0	507	506	0	510	38	43	
3	0	0	0	0	506	509	0	500	38	42	
4	0	0	0	0	511	508	0	502	38	41	
5	0	0	0	0	512	508	0	508	38	40	
6	0	0	0	0	510	508	0	508	38	40	
7	0	0	0	0	510	507	0	500	38	41	
8	0	0	0	0	508	506	0	502	38	42	
9	0	0	0	0	508	504	0	519	38	43	
10	0	0	0	0	507	503	0	538	38	43	
11	0	0	0	0	508	504	0	532	38	42	
12	0	0	0	0	509	505	0	517	38	41	
13	0	0	0	0	507	507	0	514	38	40	
14	0	0	0	0	510	508	0	518	38	40	
15	0	0	0	0	508	507	0	504	38	41	
0	0	0	0	0	508	508	0	489	38	42	
1	0	0	0	0	507	507	0	484	38	42	
2	0	0	0	0	510	505	0	504	38	43	
3	0	0	0	0	508	506	0	529	38	43	
4	0	0	0	0	507	506	0	550	38	41	
5	0	0	0	0	509	508	0	571	38	40	
6	0	0	0	0	508	508	0	570	38	40	
7	0	0	0	0	509	511	0	568	39	40	
8	0	0	0	0	508	510	0	572	38	41	
9	0	0	0	0	506	509	0	563	38	42	
10	0	0	0	0	508	510	0	558	38	43	
11	0	0	0	0	507	510	0	545	38	43	
12	0	0	0	0	509	510	0	542	38	42	
13	0	0	0	0	509	509	0	540	38	40	
14	0	0	0	0	509	509	0	517	38	40	
15	0	0	0	0	511	507	0	497	38	40	
0	0	0	0	0	511	506	0	493	38	41	
1	0	0	0	0	510	508	0	488	38	42	
2	0	0	0	0	510	508	0	466	38	42	
3	0	0	0	0	507	509	0	462	38	43	
4	0	0	0	0	508	508	0	455	38	42	
5	0	0	0	0	509	509	0	460	38	41	
6	0	0	0	0	508	508	0	470	38	40	
7	0	0	0	0	507	508	0	475	38	39	
8	0	0	0	0	507	507	0	484	38	40	
9	0	0	0	0	508	508	0	483	38	41	
10	0	0	0	0	507	509	0	477	38	42	
11	0	0	0	0	509	510	0	476	38	43	
12	0	0	0	0	508	510	0	469	38	42	
13	0	0	0	0	507	509	0	466	38	41	
14	0	0	0	0	508	508	0	439	38	40	
15	0	0	0	0	506	507	0	437	38	39	
0	0	0	0	0	506	507	0	443	38	40	
1	0	0	0	0	505	507	0	444	38	41	
2	0	0	0	0	506	508	0	439	38	42	
3	0	0	0	0	505	509	0	435	38	42	
4	0	0	0	0	507	509	0	429	38	42	
5	0	0	0	0	508	509	0	446	38	41	
6	0	0	0	0	508	509	0	470	38	40	
7	0	0	0	0	504	508	0	491	39	39	
8	0	0	0	0	505	508	0	504	38	39	
9	0	0	0	0	504	508	0	512	38	40	
10	0	0	0	0	497	507	0	530	38	41	
11	0	0	0	0	501	507	0	541	38	42	
12	0	0	0	0	514	507	0	551	38	42	
13	0	0	0	0	534	506	0	553	38	42	
14	0	0	0	0	535	506	0	552	38	40	
15	0	0	0	0	522	506	0	553	39	39	
0	0	0	0	0	506	506	0	549	38	39	
1	0	0	0	0	499	506	0	551	38	40	
2	0	0	0	0	505	506	0	536	38	41	
3	0	0	0	0	508	507	0	511	38	42	
4	0	0	0	0	509	508	0	479	38	42	
5	0	0	0	0	508	508	0	453	38	42	
6	0	0	0	0	510	506	0	438	38	41	
7	0	0	0	0	509	507	0	423	39	39	
8	0	0	0	0	509	507	0	417	38	39	
9	0	0	0	0	508	507	0	432	38	39	
10	0	0	0	0	509	507	0	447	38	41	
11	0	0	0	0	509	507	0	455	38	41	
12	0	0	0	0	509	507	0	480	38	42	
13	0	0	0	0	509	506	0	500	38	42	
14	0	0	0	0	510	506	0	513	38	41	
15	0	0	0	0	510	507	0	511	39	40	
0	0	0	0	0	510	508	0	499	38	39	
1	0	0	0	0	509	507	0	487	38	39	
2	0	0	0	0	507	506	0	479	38	40	
3	0	0	0	0	510	506	0	470	38	41	
4	0	0	0	0	512	507	0	458	38	42	
5	0	0	0	0	508	508	0	459	38	42	
6	0	0	0	0	510	507	0	465	38	41	
7	0	0	0	0	509	507	0	461	38	40	
8	0	0	0	0	511	507	0	467	38	39	
9	0	0	0	0	509	509	0	483	38	39	
10	0	0	0	0	510	508	0	492	38	40	
11	0	0	0	0	511	509	0	499	38	41	
12	0	0	0	0	509	509	0	499	38	41	
13	0	0	0	0	510	510	0	503	38	42	
14	0	0	0	0	509	508	0	498	38	42	
15	0	0	0	0	509	508	0	486	39	40	
0	0	0	0	0	509	507	0	468	38	39	
1	0	0	0	0	507	507	0	439	38	39	
2	0	0	0	0	508	507	0	419	38	39	
3	0	0	0	0	510	507	0	403	38	40	
4	0	0	0	0	511	506	0	407	38	41	
5	0	0	0	0	509	506	0	415	38	42	
6	0	0	0	0	509	508	0	419	38	42	
7	0	0	0	0	510	508	0	421	39	41	
8	0	0	0	0	510	508	0	411	38	39	
9	0	0	0	0	510	508	0	394	38	39	
10	0	0	0	0	508	510	0	377	38	39	
11	0	0	0	0	508	509	0	359	38	40	
12	0	0	0	0	510	508	0	361	38	41	
13	0	0	0	0	509	509	0	368	38	41	
14	0	0	0	0	511	508	0	391	38	42	
15	0	0	0	0	510	508	0	419	39	41	
0	0	0	0	0	511	508	0	432	38	40	
1	0	0	0	0	508	507	0	436	38	39	
2	0	0	0	0	511	505	0	440	38	39	
3	0	0	0	0	509	507	0	456	38	39	
4	0	0	0	0	509	508	0	464	38	40	
5	0	0	0	0	509	509	0	463	38	41	
6	0	0	0	0	508	509	0	463	38	42	
7	0	0	0	0	512	508	0	444	39	41	
8	0	0	0	0	510	507	0	435	38	40	
9	0	0	0	0	511	506	0	425	38	39	
10	0	0	0	0	510	505	0	409	38	38	
11	0	0	0	0	508	504	0	416	38	39	
12	0	0	0	0	510	504	0	439	38	40	
13	0	0	0	0	510	504	0	456	38	41	
14	0	0	0	0	508	504	0	477	38	42	
15	0	0	0	0	509	505	0	484	39	42	
0	0	0	0	0	509	507	0	492	38	41	
1	0	0	0	0	507	507	0	498	38	39	
2	0	0	0	0	508	507	0	500	38	38	
3	0	0	0	0	510	506	0	504	38	39	
4	0	0	0	0	508	505	0	505	38	40	
5	0	0	0	0	510	506	0	521	38	41	
6	0	0	0	0	511	508	0	531	38	41	
7	0	0	0	0	511	508	0	537	39	42	
8	0	0	0	0	511	509	0	541	38	41	
9	0	0	0	0	511	509	0	532	38	40	
10	0	0	0	0	510	509	0	534	38	39	
11	0	0	0	0	512	509	0	536	38	38	
12	0	0	0	0	510	508	0	533	38	39	
13	0	0	0	0	510	507	0	523	38	40	
14	0	0	0	0	509	505	0	507	38	41	
15	0	0	0	0	509	504	0	496	39	42	
0	0	0	0	0	511	506	0	495	38	41	
1	0	0	0	0	508	508	0	489	38	40	
2	0	0	0	0	510	510	0	486	38	39	
3	0	0	0	0	510	508	0	485	38	38	
4	0	0	0	0	509	508	0	489	38	39	
5	0	0	0	0	510	507	0	484	38	40	
6	0	0	0	0	509	508	0	471	38	41	
7	0	0	0	0	510	509	0	477	39	41	
8	0	0	0	0	509	510	0	487	38	41	
9	0	0	0	0	509	510	0	504	38	41	
10	0	0	0	0	510	510	0	516	38	39	
11	0	0	0	0	510	508	0	508	38	38	
12	0	0	0	0	510	508	0	525	38	39	
13	0	0	0	0	510	508	0	555	38	40	
14	0	0	0	0	509	506	0	563	38	41	
15	0	0	0	0	509	507	0	551	39	41	
0	0	0	0	0	508	507	0	547	38	42	
1	0	0	0	0	506	507	0	550	38	41	
2	0	0	0	0	508	507	0	547	38	40	
3	0	0	0	0	509	506	0	552	38	39	
4	0	0	0	0	509	508	0	549	38	38	
5	0	0	0	0	510	509	0	555	38	39	
6	0	0	0	0	510	508	0	548	38	40	
7	0	0	0	0	507	506	0	538	39	41	
8	0	0	0	0	511	506	0	536	38	42	
9	0	0	0	0	508	504	0	534	38	41	
10	0	0	0	0	509	506	0	537	38	40	
11	0	0	0	0	508	508	0	549	38	39	
12	0	0	0	0	510	510	0	554	38	38	
13	0	0	0	0	508	510	0	562	38	39	
14	0	0	0	0	509	511	0	561	38	40	
15	0	0	0	0	509	508	0	558	39	41	
0	0	0	0	0	510	508	0	557	38	41	
1	0	0	0	0	508	509	0	561	38	41	
2	0	0	0	0	509	509	0	584	38	41	
3	0	0	0	0	510	509	0	580	38	39	
4	0	0	0	0	507	511	0	562	38	38	
5	0	0	0	0	508	511	0	533	38	39	
6	0	0	0	0	511	510	0	508	38	40	
7	0	0	0	0	508	510	0	497	39	41	
8	0	0	0	0	511	508	0	487	38	41	
9	0	0	0	0	510	508	0	486	38	42	
10	0	0	0	0	510	506	0	485	38	41	
11	0	0	0	0	508	508	0	486	38	40	
12	0	0	0	0	510	509	0	505	38	39	
13	0	0	0	0	510	508	0	516	38	38	
14	0	0	0	0	511	508	0	522	38	39	
15	0	0	0	0	510	508	0	523	39	40	
0	0	0	0	0	510	507	0	527	38	41	
1	0	0	0	0	509	506	0	545	38	42	
2	0	0	0	0	510	507	0	563	38	41	
3	0	0	0	0	506	508	0	570	38	40	
4	0	0	0	0	508	508	0	573	38	39	
5	0	0	0	0	509	508	0	564	38	38	
6	0	0	0	0	510	510	0	575	38	39	
7	0	0	0	0	510	510	0	569	38	40	
8	0	0	0	0	508	508	0	565	38	41	
9	0	0	0	0	510	507	0	559	38	42	
10	0	0	0	0	507	506	0	547	38	42	
11	0	0	0	0	509	505	0	540	38	41	
12	0	0	0	0	510	505	0	534	38	39	
13	0	0	0	0	511	504	0	524	38	38	
14	0	0	0	0	507	505	0	524	38	39	
15	0	0	0	0	508	507	0	535	39	40	
0	0	0	0	0	508	507	0	552	38	41	
1	0	0	0	0	509	507	0	573	38	41	
2	0	0	0	0	507	508	0	581	38	42	
3	0	0	0	0	509	508	0	591	38	41	
4	0	0	0	0	510	510	0	595	38	40	
5	0	0	0	0	510	511	0	596	38	39	
6	0	0	0	0	510	510	0	601	38	39	
7	0	0	0	0	511	510	0	607	38	39	
8	0	0	0	0	511	510	0	610	38	40	
9	0	0	0	0	508	509	0	599	38	41	
10	0	0	0	0	510	509	0	589	38	42	
11	0	0	0	0	509	509	0	581	38	41	
12	0	0	0	0	508	510	0	567	38	40	
13	0	0	0	0	508	510	0	549	38	39	
14	0	0	0	0	509	510	0	515	38	39	
15	0	0	0	0	507	508	0	505	38	39	
0	0	0	0	0	508	509	0	518	38	40	
1	0	0	0	0	510	508	0	526	38	41	
2	0	0	0	0	508	508	0	524	38	42	
3	0	0	0	0	514	508	0	512	38	42	
4	0	0	0	0	515	508	0	514	38	41	
5	0	0	0	0	516	508	0	518	38	40	
6	0	0	0	0	513	507	0	518	38	39	
7	0	0	0	0	512	505	0	510	39	39	
8	0	0	0	0	510	507	0	499	38	40	
9	0	0	0	0	509	507	0	500	38	41	
10	0	0	0	0	510	508	0	515	38	42	
11	0	0	0	0	507	507	0	514	38	42	
12	0	0	0	0	506	508	0	504	38	41	
13	0	0	0	0	506	509	0	483	38	40	
14	0	0	0	0	507	509	0	486	38	39	
15	0	0	0	0	509	510	0	489	39	39	
0	0	0	0	0	507	510	0	475	38	40	
1	0	0	0	0	507	511	0	471	38	41	
2	0	0	0	0	508	508	0	475	38	41	
3	0	0	0	0	507	506	0	476	38	42	
4	0	0	0	0	509	505	0	487	38	42	
5	0	0	0	0	508	505	0	502	38	41	
6	0	0	0	0	507	505	0	496	38	39	
7	0	0	0	0	506	506	0	495	39	39	
8	0	0	0	0	509	507	0	511	38	39	
9	0	0	0	0	508	507	0	528	38	40	
10	0	0	0	0	507	506	0	532	38	41	
11	0	0	0	0	508	508	0	526	38	42	
12	0	0	0	0	508	510	0	520	38	42	
13	0	0	0	0	508	509	0	518	38	41	
14	0	0	0	0	508	509	0	510	38	40	
15	0	0	0	0	507	508	0	497	39	39	
0	0	0	0	0	510	509	0	488	38	39	
1	0	0	0	0	509	509	0	484	38	40	
2	0	0	0	0	511	509	0	489	38	41	
3	0	0	0	0	510	508	0	485	38	42	
4	0	0	0	0	510	506	0	466	38	42	
5	0	0	0	0	513	508	0	442	38	41	
6	0	0	0	0	510	508	0	410	38	40	
7	0	0	0	0	508	509	0	379	39	39	
8	0	0	0	0	507	510	0	371	38	39	
9	0	0	0	0	507	509	0	389	38	40	
10	0	0	0	0	507	509	0	415	38	41	
11	0	0	0	0	506	508	0	415	38	42	
12	0	0	0	0	507	507	0	432	38	42	
13	0	0	0	0	513	507	0	460	38	42	
14	0	0	0	0	517	508	0	489	38	41	
15	0	0	0	0	516	508	0	517	39	39	
0	0	0	0	0	513	506	0	521	38	39	
1	0	0	0	0	510	507	0	512	38	39	
2	0	0	0	0	510	505	0	498	38	40	
3	0	0	0	0	513	504	0	472	38	41	
4	0	0	0	0	513	505	0	473	38	42	
5	0	0	0	0	514	505	0	488	38	42	
6	0	0	0	0	513	505	0	510	38	41	
7	0	0	0	0	513	508	0	519	39	40	
8	0	0	0	0	515	508	0	523	38	39	
9	0	0	0	0	510	508	0	531	38	39	
10	0	0	0	0	504	508	0	549	38	40	
11	0	0	0	0	495	509	0	563	38	41	
12	0	0	0	0	497	508	0	561	38	42	
13	0	0	0	0	508	508	0	552	38	42	
14	0	0	0	0	525	509	0	553	38	42	
15	0	0	0	0	528	509	0	552	39	40	
0	0	0	0	0	519	509	0	556	38	39	
1	0	0	0	0	508	508	0	564	38	39	
2	0	0	0	0	497	507	0	563	38	40	
3	0	0	0	0	504	507	0	563	38	41	
4	0	0	0	0	507	506	0	560	38	42	
5	0	0	0	0	507	507	0	561	38	42	
6	0	0	0	0	504	506	0	579	38	42	
7	0	0	0	0	505	507	0	561	39	41	
8	0	0	0	0	506	508	0	561	38	40	
9	0	0	0	0	506	506	0	547	38	39	
10	0	0	0	0	506	507	0	542	38	40	
11	0	0	0	0	507	507	0	544	38	41	
12	0	0	0	0	505	506	0	536	38	42	
13	0	0	0	0	507	507	0	530	38	42	
14	0	0	0	0	504	507	0	521	38	42	
15	0	0	0	0	506	508	0	516	39	41	
0	0	0	0	0	508	506	0	521	38	40	
1	0	0	0	0	508	507	0	524	38	39	
2	0	0	0	0	512	508	0	518	38	39	
3	0	0	0	0	509	508	0	515	38	40	
4	0	0	0	0	510	507	0	518	38	41	
5	0	0	0	0	510	507	0	513	38	42	
6	0	0	0	0	511	507	0	514	38	42	
7	0	0	0	0	512	506	0	520	39	42	
8	0	0	0	0	510	508	0	528	38	41	
9	0	0	0	0	508	507	0	536	38	39	
10	0	0	0	0	506	504	0	535	38	39	
11	0	0	0	0	507	505	0	523	38	40	
12	0	0	0	0	507	506	0	514	38	41	
13	0	0	0	0	504	507	0	504	38	42	
14	0	0	0	0	503	508	0	501	38	43	
15	0	0	0	0	506	508	0	492	39	42	
0	0	0	0	0	508	507	0	480	38	41	
1	0	0	0	0	512	506	0	466	38	40	
2	0	0	0	0	512	506	0	455	38	39	
3	0	0	0	0	508	507	0	456	38	40	
4	0	0	0	0	508	508	0	462	38	41	
5	0	0	0	0	508	507	0	478	38	42	
6	0	0	0	0	508	509	0	492	38	43	
7	0	0	0	0	506	508	0	503	39	43	
8	0	0	0	0	510	507	0	504	38	42	
9	0	0	0	0	510	508	0	505	38	40	
10	0	0	0	0	512	504	0	514	38	39	
11	0	0	0	0	515	503	0	512	38	40	
12	0	0	0	0	513	502	0	505	38	41	
13	0	0	0	0	518	504	0	498	38	42	
14	0	0	0	0	523	504	0	484	38	42	
15	0	0	0	0	514	505	0	483	39	43	
0	0	0	0	0	507	504	0	490	38	42	
1	0	0	0	0	504	506	0	499	38	41	
2	0	0	0	0	509	504	0	518	38	40	
3	0	0	0	0	509	505	0	531	38	40	
4	0	0	0	0	508	505	0	541	38	40	
5	0	0	0	0	510	505	0	557	38	41	
6	0	0	0	0	509	507	0	554	38	42	
7	0	0	0	0	506	507	0	543	39	43	
8	0	0	0	0	508	507	0	541	38	43	
9	0	0	0	0	510	505	0	539	38	41	
10	0	0	0	0	509	506	0	520	38	40	
11	0	0	0	0	510	507	0	493	38	40	
12	0	0	0	0	510	507	0	491	38	40	
13	0	0	0	0	510	506	0	488	38	41	
14	0	0	0	0	505	507	0	492	38	42	
15	0	0	0	0	504	508	0	491	39	43	
0	0	0	0	0	507	507	0	488	38	43	
1	0	0	0	0	511	506	0	488	38	42	
2	0	0	0	0	508	507	0	489	38	41	
3	0	0	0	0	512	506	0	496	38	40	
4	0	0	0	0	512	508	0	501	38	40	
5	0	0	0	0	510	508	0	495	38	41	
6	0	0	0	0	511	510	0	496	38	42	
7	0	0	0	0	512	510	0	492	39	43	
8	0	0	0	0	505	510	0	502	38	43	
9	0	0	0	0	504	508	0	502	38	42	
10	0	0	0	0	504	506	0	493	38	41	
11	0	0	0	0	504	507	0	504	38	40	
12	0	0	0	0	510	507	0	518	38	40	
13	0	0	0	0	507	508	0	527	38	41	
14	0	0	0	0	493	509	0	532	38	42	
15	0	0	0	0	506	510	0	521	39	43	
0	0	0	0	0	541	512	0	524	38	43	
1	0	0	0	0	550	511	0	527	38	43	
2	0	0	0	0	511	511	0	520	38	42	
3	0	0	0	0	493	510	0	518	38	41	
4	0	0	0	0	501	509	0	518	38	40	
5	0	0	0	0	506	511	0	528	38	41	
6	0	0	0	0	504	510	0	536	38	42	
7	0	0	0	0	508	508	0	547	39	43	
8	0	0	0	0	515	508	0	558	38	43	
9	0	0	0	0	519	508	0	554	38	43	
10	0	0	0	0	518	510	0	551	38	42	
11	0	0	0	0	504	510	0	547	38	41	
12	0	0	0	0	501	510	0	541	38	40	
13	0	0	0	0	496	511	0	523	38	40	
14	0	0	0	0	499	512	0	503	38	41	
15	0	0	0	0	503	512	0	499	39	42	
0	0	0	0	0	511	509	0	502	38	43	
1	0	0	0	0	513	508	0	495	38	43	
2	0	0	0	0	500	507	0	494	38	43	
3	0	0	0	0	506	508	0	496	38	42	
4	0	0	0	0	508	508	0	503	38	40	
5	0	0	0	0	502	505	0	515	38	40	
6	0	0	0	0	504	507	0	524	38	41	
7	0	0	0	0	498	507	0	523	38	42	
8	0	0	0	0	499	507	0	512	38	43	
9	0	0	0	0	513	508	0	510	38	44	
10	0	0	0	0	521	508	0	512	38	43	
11	0	0	0	0	514	508	0	521	38	42	
12	0	0	0	0	508	509	0	530	38	41	
13	0	0	0	0	502	509	0	520	38	40	
14	0	0	0	0	504	508	0	517	38	41	
15	0	0	0	0	507	507	0	507	39	42	
0	0	0	0	0	511	508	0	500	38	43	
1	0	0	0	0	506	508	0	491	38	44	
2	0	0	0	0	506	508	0	474	38	44	
3	0	0	0	0	508	508	0	470	38	43	
4	0	0	0	0	508	508	0	476	38	41	
5	0	0	0	0	507	507	0	490	38	40	
6	0	0	0	0	508	508	0	502	38	41	
7	0	0	0	0	507	510	0	497	39	42	
8	0	0	0	0	509	509	0	515	38	43	
9	0	0	0	0	510	511	0	542	38	43	
10	0	0	0	0	508	510	0	560	38	44	
11	0	0	0	0	508	509	0	558	38	43	
12	0	0	0	0	508	508	0	551	38	42	
13	0	0	0	0	507	508	0	544	38	41	
14	0	0	0	0	509	508	0	527	38	41	
15	0	0	0	0	510	507	0	511	38	41	
0	0	0	0	0	512	504	0	511	38	42	
1	0	0	0	0	511	505	0	512	38	43	
2	0	0	0	0	506	506	0	515	38	44	
3	0	0	0	0	507	507	0	518	38	44	
4	0	0	0	0	504	505	0	508	38	42	
5	0	0	0	0	506	505	0	493	38	41	
6	0	0	0	0	504	507	0	484	38	41	
7	0	0	0	0	506	508	0	480	38	41	
8	0	0	0	0	511	507	0	477	38	42	
9	0	0	0	0	513	508	0	490	38	43	
10	0	0	0	0	515	507	0	515	38	44	
11	0	0	0	0	512	508	0	536	38	44	
12	0	0	0	0	510	507	0	560	38	43	
13	0	0	0	0	510	508	0	576	38	42	
14	0	0	0	0	509	508	0	579	38	41	
15	0	0	0	0	508	508	0	579	38	41	
0	0	0	0	0	508	508	0	573	38	42	
1	0	0	0	0	508	510	0	563	38	43	
2	0	0	0	0	509	510	0	551	38	44	
3	0	0	0	0	510	510	0	544	38	44	
4	0	0	0	0	509	509	0	559	38	43	
5	0	0	0	0	509	509	0	569	38	42	
6	0	0	0	0	508	509	0	566	38	41	
7	0	0	0	0	508	510	0	564	39	41	
8	0	0	0	0	509	508	0	568	38	42	
9	0	0	0	0	509	508	0	574	38	43	
10	0	0	0	0	512	510	0	564	38	43	
11	0	0	0	0	510	509	0	545	38	44	
12	0	0	0	0	508	510	0	527	38	44	
13	0	0	0	0	507	508	0	520	38	43	
14	0	0	0	0	508	507	0	514	38	41	
15	0	0	0	0	505	508	0	500	39	41	
0	0	0	0	0	497	508	0	494	38	41	
1	0	0	0	0	495	508	0	496	38	42	
2	0	0	0	0	512	507	0	500	38	43	
3	0	0	0	0	532	507	0	481	38	44	
4	0	0	0	0	531	507	0	470	38	44	
5	0	0	0	0	523	509	0	469	38	43	
6	0	0	0	0	502	508	0	475	38	42	
7	0	0	0	0	501	509	0	480	39	41	
8	0	0	0	0	504	509	0	474	38	41	
9	0	0	0	0	505	509	0	470	38	42	
10	0	0	0	0	505	509	0	486	38	43	
11	0	0	0	0	506	509	0	500	38	44	
12	0	0	0	0	513	507	0	510	38	44	
13	0	0	0	0	518	508	0	515	38	43	
14	0	0	0	0	519	508	0	527	38	42	
15	0	0	0	0	512	509	0	540	38	41	
0	0	0	0	0	508	509	0	550	38	41	
1	0	0	0	0	504	508	0	543	38	42	
2	0	0	0	0	503	507	0	505	38	43	
3	0	0	0	0	504	507	0	460	38	43	
4	0	0	0	0	503	509	0	436	38	44	
5	0	0	0	0	503	509	0	436	38	44	
6	0	0	0	0	510	510	0	454	38	43	
7	0	0	0	0	512	510	0	460	39	41	
8	0	0	0	0	515	510	0	455	38	41	
9	0	0	0	0	513	508	0	454	38	41	
10	0	0	0	0	513	509	0	468	38	42	
11	0	0	0	0	514	507	0	471	38	43	
12	0	0	0	0	511	508	0	478	38	44	
13	0	0	0	0	504	509	0	480	38	44	
14	0	0	0	0	505	508	0	494	38	43	
15	0	0	0	0	502	508	0	512	38	42	
0	0	0	0	0	500	508	0	533	38	41	
1	0	0	0	0	514	509	0	540	38	41	
2	0	0	0	0	505	510	0	540	38	42	
3	0	0	0	0	506	510	0	549	38	43	
4	0	0	0	0	524	510	0	539	38	44	
5	0	0	0	0	521	511	0	524	38	44	
6	0	0	0	0	528	512	0	503	38	43	
7	0	0	0	0	511	511	0	489	38	42	
8	0	0	0	0	503	509	0	485	38	41	
9	0	0	0	0	499	509	0	478	38	41	
10	0	0	0	0	487	510	0	482	38	42	
11	0	0	0	0	490	508	0	483	38	43	
12	0	0	0	0	506	507	0	481	38	43	
13	0	0	0	0	528	507	0	473	38	44	
14	0	0	0	0	531	507	0	449	38	44	
15	0	0	0	0	525	507	0	438	38	43	
0	0	0	0	0	510	508	0	444	38	41	
1	0	0	0	0	496	509	0	437	38	41	
2	0	0	0	0	492	508	0	440	38	41	
3	0	0	0	0	499	507	0	453	38	42	
4	0	0	0	0	483	506	0	467	38	43	
5	0	0	0	0	476	505	0	480	38	44	
6	0	0	0	0	513	504	0	480	38	44	
7	0	0	0	0	546	504	0	486	38	43	
8	0	0	0	0	550	504	0	486	38	42	
9	0	0	0	0	539	504	0	487	38	41	
10	0	0	0	0	519	505	0	492	38	41	
11	0	0	0	0	500	505	0	500	38	42	
12	0	0	0	0	497	505	0	519	38	43	
13	0	0	0	0	499	507	0	523	38	44	
14	0	0	0	0	501	507	0	530	38	44	
15	0	0	0	0	508	508	0	550	39	43	
0	0	0	0	0	534	508	0	570	38	42	
1	0	0	0	0	540	508	0	594	38	41	
2	0	0	0	0	512	505	0	607	38	41	
3	0	0	0	0	496	508	0	609	38	41	
4	0	0	0	0	491	508	0	612	38	43	
5	0	0	0	0	495	509	0	598	38	43	
6	0	0	0	0	497	509	0	579	38	44	
7	0	0	0	0	495	509	0	575	39	44	
8	0	0	0	0	485	510	0	551	38	42	
9	0	0	0	0	500	511	0	530	38	41	
10	0	0	0	0	527	510	0	515	38	41	
11	0	0	0	0	530	507	0	497	38	41	
12	0	0	0	0	525	508	0	491	38	42	
13	0	0	0	0	509	509	0	469	38	43	
14	0	0	0	0	510	508	0	453	38	44	
15	0	0	0	0	508	508	0	447	39	44	
0	0	0	0	0	511	507	0	445	38	43	
1	0	0	0	0	511	507	0	459	38	42	
2	0	0	0	0	508	508	0	483	38	41	
3	0	0	0	0	505	508	0	478	38	41	
4	0	0	0	0	502	507	0	465	38	42	
5	0	0	0	0	498	508	0	455	38	43	
6	0	0	0	0	497	508	0	464	38	44	
7	0	0	0	0	500	509	0	476	39	44	
8	0	0	0	0	509	509	0	485	38	43	
9	0	0	0	0	510	510	0	484	38	42	
10	0	0	0	0	517	509	0	478	38	41	
11	0	0	0	0	518	508	0	476	38	41	
12	0	0	0	0	515	507	0	476	38	41	
13	0	0	0	0	513	507	0	479	38	42	
14	0	0	0	0	514	506	0	478	38	43	
15	0	0	0	0	512	508	0	483	39	44	
0	0	0	0	0	510	507	0	489	38	44	
1	0	0	0	0	501	505	0	499	38	42	
2	0	0	0	0	494	506	0	499	38	41	
3	0	0	0	0	505	506	0	500	38	40	
4	0	0	0	0	511	506	0	513	38	41	
5	0	0	0	0	506	508	0	526	38	42	
6	0	0	0	0	499	506	0	522	38	43	
7	0	0	0	0	487	507	0	499	39	44	
8	0	0	0	0	459	506	0	469	38	44	
9	0	0	0	0	459	505	0	450	38	43	
10	0	0	0	0	502	506	0	451	38	42	
11	0	0	0	0	541	504	0	461	38	41	
12	0	0	0	0	565	503	0	467	38	41	
13	0	0	0	0	570	504	0	463	38	42	
14	0	0	0	0	556	504	0	465	38	43	
15	0	0	0	0	516	503	0	460	39	44	
0	0	0	0	0	509	503	0	457	38	44	
1	0	0	0	0	500	504	0	456	38	43	
2	0	0	0	0	502	505	0	455	38	42	
3	0	0	0	0	503	506	0	469	38	41	
4	0	0	0	0	504	507	0	493	38	41	
5	0	0	0	0	507	507	0	519	38	41	
6	0	0	0	0	507	508	0	529	38	42	
7	0	0	0	0	501	507	0	540	39	43	
8	0	0	0	0	495	506	0	555	38	44	
9	0	0	0	0	495	507	0	548	38	44	
10	0	0	0	0	499	506	0	534	38	43	
11	0	0	0	0	511	506	0	539	38	41	
12	0	0	0	0	501	505	0	550	38	40	
13	0	0	0	0	513	504	0	559	38	41	
14	0	0	0	0	547	504	0	566	38	42	
15	0	0	0	0	543	504	0	571	39	43	
0	0	0	0	0	523	504	0	576	38	44	
1	0	0	0	0	495	504	0	577	38	44	
2	0	0	0	0	480	505	0	577	38	43	
3	0	0	0	0	492	507	0	572	38	42	
4	0	0	0	0	511	509	0	563	38	41	
5	0	0	0	0	529	508	0	551	38	41	
6	0	0	0	0	520	506	0	517	38	42	
7	0	0	0	0	511	505	0	481	39	43	
8	0	0	0	0	489	506	0	470	38	44	
9	0	0	0	0	493	504	0	463	38	44	
10	0	0	0	0	499	505	0	465	38	43	
11	0	0	0	0	505	506	0	472	38	42	
12	0	0	0	0	506	506	0	480	38	41	
13	0	0	0	0	508	507	0	472	38	41	
14	0	0	0	0	510	505	0	480	38	41	
15	0	0	0	0	510	508	0	489	39	42	
0	0	0	0	0	511	508	0	499	38	43	
1	0	0	0	0	510	510	0	506	38	44	
2	0	0	0	0	510	510	0	525	38	44	
3	0	0	0	0	508	510	0	523	38	43	
4	0	0	0	0	508	510	0	516	38	41	
5	0	0	0	0	511	509	0	518	38	41	
6	0	0	0	0	510	508	0	535	38	41	
7	0	0	0	0	508	507	0	551	39	42	
8	0	0	0	0	509	506	0	564	38	43	
9	0	0	0	0	510	506	0	561	38	44	
10	0	0	0	0	512	506	0	538	38	44	
11	0	0	0	0	511	508	0	517	38	43	
12	0	0	0	0	510	510	0	507	38	42	
13	0	0	0	0	509	509	0	493	38	41	
14	0	0	0	0	505	508	0	477	38	41	
15	0	0	0	0	503	508	0	454	39	42	
0	0	0	0	0	509	508	0	447	38	43	
1	0	0	0	0	514	508	0	441	38	44	
2	0	0	0	0	510	509	0	444	38	44	
3	0	0	0	0	508	510	0	441	38	43	
4	0	0	0	0	508	509	0	440	38	42	
5	0	0	0	0	499	507	0	459	38	41	
6	0	0	0	0	494	507	0	480	38	41	
7	0	0	0	0	502	505	0	488	39	41	
8	0	0	0	0	519	504	0	498	38	42	
9	0	0	0	0	530	505	0	504	38	43	
10	0	0	0	0	523	505	0	522	38	44	
11	0	0	0	0	528	505	0	537	38	44	
12	0	0	0	0	520	507	0	545	38	43	
13	0	0	0	0	504	507	0	535	38	41	
14	0	0	0	0	493	506	0	502	38	40	
15	0	0	0	0	497	506	0	483	39	41	
0	0	0	0	0	500	507	0	473	38	42	
1	0	0	0	0	506	509	0	455	38	43	
2	0	0	0	0	510	508	0	462	38	44	
3	0	0	0	0	480	508	0	489	38	44	
4	0	0	0	0	469	507	0	510	38	43	
5	0	0	0	0	481	506	0	529	38	42	
6	0	0	0	0	532	505	0	541	38	41	
7	0	0	0	0	566	504	0	557	38	41	
8	0	0	0	0	556	505	0	572	38	42	
9	0	0	0	0	511	506	0	576	38	43	
10	0	0	0	0	509	507	0	576	38	44	
11	0	0	0	0	523	507	0	568	38	44	
12	0	0	0	0	515	507	0	568	38	43	
13	0	0	0	0	506	507	0	563	38	42	
14	0	0	0	0	504	507	0	551	38	41	
15	0	0	0	0	507	508	0	540	39	41	
0	0	0	0	0	508	508	0	519	38	41	
1	0	0	0	0	502	507	0	514	38	42	
2	0	0	0	0	497	506	0	523	38	43	
3	0	0	0	0	498	505	0	538	38	44	
4	0	0	0	0	496	507	0	553	38	44	
5	0	0	0	0	509	507	0	555	38	43	
6	0	0	0	0	501	507	0	559	38	41	
7	0	0	0	0	503	506	0	569	39	40	
8	0	0	0	0	512	506	0	584	38	41	
9	0	0	0	0	504	505	0	583	38	42	
10	0	0	0	0	504	506	0	573	38	43	
11	0	0	0	0	505	507	0	551	38	44	
12	0	0	0	0	503	506	0	524	38	44	
13	0	0	0	0	496	505	0	512	38	43	
14	0	0	0	0	490	506	0	508	38	42	
15	0	0	0	0	497	507	0	507	39	41	
0	0	0	0	0	530	506	0	507	38	41	
1	0	0	0	0	541	507	0	500	38	42	
2	0	0	0	0	529	510	0	504	38	43	
3	0	0	0	0	526	508	0	514	38	44	
4	0	0	0	0	512	506	0	523	38	44	
5	0	0	0	0	504	507	0	525	38	43	
6	0	0	0	0	500	506	0	520	38	42	
7	0	0	0	0	503	507	0	524	39	41	
8	0	0	0	0	508	507	0	532	38	40	
9	0	0	0	0	506	506	0	531	38	41	
10	0	0	0	0	503	507	0	521	38	42	
11	0	0	0	0	499	507	0	513	38	43	
12	0	0	0	0	495	507	0	519	38	44	
13	0	0	0	0	491	505	0	526	38	44	
14	0	0	0	0	485	505	0	534	38	43	
15	0	0	0	0	488	504	0	539	39	41	
0	0	0	0	0	512	505	0	538	38	40	
1	0	0	0	0	546	506	0	532	38	41	
2	0	0	0	0	555	508	0	522	38	42	
3	0	0	0	0	541	507	0	516	38	43	
4	0	0	0	0	519	508	0	519	38	44	
5	0	0	0	0	499	508	0	518	38	44	
6	0	0	0	0	499	508	0	512	38	43	
7	0	0	0	0	504	508	0	521	39	42	
8	0	0	0	0	502	509	0	527	38	40	
9	0	0	0	0	504	510	0	535	38	41	
10	0	0	0	0	506	511	0	527	38	42	
11	0	0	0	0	506	509	0	527	38	43	
12	0	0	0	0	509	508	0	510	38	43	
13	0	0	0	0	509	509	0	494	38	44	
14	0	0	0	0	511	509	0	476	38	43	
15	0	0	0	0	505	509	0	480	39	42	
0	0	0	0	0	502	508	0	514	38	41	
1	0	0	0	0	507	507	0	517	38	40	
2	0	0	0	0	509	507	0	516	38	41	
3	0	0	0	0	509	507	0	520	38	42	
4	0	0	0	0	507	508	0	529	38	43	
5	0	0	0	0	508	508	0	524	38	44	
6	0	0	0	0	510	508	0	521	38	44	
7	0	0	0	0	508	509	0	528	38	42	
8	0	0	0	0	509	510	0	513	38	41	
9	0	0	0	0	508	510	0	489	38	40	
10	0	0	0	0	508	509	0	475	38	41	
11	0	0	0	0	510	509	0	463	38	42	
12	0	0	0	0	508	509	0	467	38	43	
13	0	0	0	0	510	508	0	479	38	44	
14	0	0	0	0	511	508	0	463	38	44	
15	0	0	0	0	513	507	0	469	39	43	
0	0	0	0	0	512	507	0	486	38	41	
1	0	0	0	0	509	507	0	505	38	40	
2	0	0	0	0	511	508	0	510	38	40	
3	0	0	0	0	510	507	0	507	38	42	
4	0	0	0	0	512	507	0	508	38	43	
5	0	0	0	0	511	506	0	505	38	43	
6	0	0	0	0	510	506	0	500	38	44	
7	0	0	0	0	511	507	0	498	39	43	
8	0	0	0	0	509	508	0	501	38	42	
9	0	0	0	0	510	509	0	501	38	41	
10	0	0	0	0	510	508	0	511	38	40	
11	0	0	0	0	507	509	0	524	38	41	
12	0	0	0	0	509	508	0	550	38	42	
13	0	0	0	0	513	507	0	556	38	43	
14	0	0	0	0	513	508	0	556	38	44	
15	0	0	0	0	513	508	0	560	38	43	
0	0	0	0	0	509	509	0	551	38	42	
1	0	0	0	0	507	509	0	541	38	41	
2	0	0	0	0	507	508	0	528	38	40	
3	0	0	0	0	510	508	0	518	38	41	
4	0	0	0	0	510	508	0	505	38	42	
5	0	0	0	0	510	508	0	485	38	43	
6	0	0	0	0	512	507	0	488	38	43	
7	0	0	0	0	508	506	0	494	39	44	
8	0	0	0	0	507	506	0	505	38	43	
9	0	0	0	0	509	505	0	515	38	41	
10	0	0	0	0	509	505	0	521	38	40	
11	0	0	0	0	507	506	0	535	38	40	
12	0	0	0	0	507	505	0	556	38	41	
13	0	0	0	0	510	504	0	572	38	42	
14	0	0	0	0	511	505	0	580	38	43	
15	0	0	0	0	511	507	0	580	39	44	
0	0	0	0	0	514	508	0	566	38	43	
1	0	0	0	0	511	509	0	537	38	42	
2	0	0	0	0	509	510	0	515	38	41	
3	0	0	0	0	509	510	0	499	38	40	
4	0	0	0	0	510	509	0	479	38	41	
5	0	0	0	0	513	509	0	467	38	42	
6	0	0	0	0	511	508	0	460	38	43	
7	0	0	0	0	511	507	0	464	39	44	
8	0	0	0	0	510	507	0	481	38	43	
9	0	0	0	0	509	507	0	497	38	42	
10	0	0	0	0	510	508	0	502	38	41	
11	0	0	0	0	511	508	0	489	38	40	
12	0	0	0	0	507	508	0	488	38	41	
13	0	0	0	0	507	508	0	490	38	42	
14	0	0	0	0	511	508	0	495	38	43	
15	0	0	0	0	509	509	0	491	39	43	
0	0	0	0	0	508	508	0	496	38	44	
1	0	0	0	0	511	508	0	512	38	43	
2	0	0	0	0	512	507	0	522	38	41	
3	0	0	0	0	509	507	0	529	38	40	
4	0	0	0	0	512	504	0	530	38	40	
5	0	0	0	0	511	503	0	522	38	41	
6	0	0	0	0	512	505	0	518	38	42	
7	0	0	0	0	511	507	0	511	39	43	
8	0	0	0	0	510	508	0	511	38	44	
9	0	0	0	0	510	508	0	497	38	43	
10	0	0	0	0	511	508	0	484	38	42	
11	0	0	0	0	510	507	0	481	38	40	
12	0	0	0	0	508	507	0	470	38	40	
13	0	0	0	0	510	507	0	455	38	41	
14	0	0	0	0	509	508	0	449	38	42	
15	0	0	0	0	508	507	0	454	39	43	
0	0	0	0	0	513	507	0	468	38	44	
1	0	0	0	0	510	508	0	495	38	43	
2	0	0	0	0	508	508	0	495	38	42	
3	0	0	0	0	510	507	0	513	38	41	
4	0	0	0	0	510	507	0	519	38	40	
5	0	0	0	0	510	506	0	528	38	41	
6	0	0	0	0	510	507	0	545	38	42	
7	0	0	0	0	512	507	0	555	39	43	
8	0	0	0	0	509	508	0	554	38	43	
9	0	0	0	0	511	507	0	536	38	43	
10	0	0	0	0	508	507	0	515	38	43	
11	0	0	0	0	510	508	0	506	38	41	
12	0	0	0	0	511	509	0	508	38	40	
13	0	0	0	0	512	509	0	507	38	40	
14	0	0	0	0	512	509	0	501	38	41	
15	0	0	0	0	508	508	0	519	39	42	
0	0	0	0	0	510	508	0	535	38	43	
1	0	0	0	0	509	508	0	550	38	44	
2	0	0	0	0	509	508	0	556	38	43	
3	0	0	0	0	510	507	0	555	38	42	
4	0	0	0	0	511	508	0	558	38	40	
5	0	0	0	0	511	507	0	559	38	40	
6	0	0	0	0	508	507	0	572	38	41	
7	0	0	0	0	511	507	0	567	38	42	
8	0	0	0	0	511	508	0	549	38	43	
9	0	0	0	0	510	507	0	547	38	43	
10	0	0	0	0	510	509	0	543	38	43	
11	0	0	0	0	509	509	0	535	38	42	
12	0	0	0	0	510	510	0	515	38	41	
13	0	0	0	0	509	510	0	502	38	40	
14	0	0	0	0	508	510	0	511	38	40	
15	0	0	0	0	509	510	0	514	39	42	
0	0	0	0	0	509	510	0	515	38	43	
1	0	0	0	0	511	510	0	506	38	43	
2	0	0	0	0	510	508	0	504	38	43	
3	0	0	0	0	508	508	0	506	38	43	
4	0	0	0	0	509	509	0	504	38	41	
5	0	0	0	0	509	508	0	509	38	40	
6	0	0	0	0	510	508	0	496	38	40	
7	0	0	0	0	511	509	0	497	39	41	
8	0	0	0	0	510	510	0	500	38	42	
9	0	0	0	0	511	511	0	505	38	43	
10	0	0	0	0	510	510	0	515	38	44	
11	0	0	0	0	509	511	0	520	38	43	
12	0	0	0	0	510	512	0	518	38	42	
13	0	0	0	0	510	512	0	504	38	40	
14	0	0	0	0	511	511	0	496	38	40	
15	0	0	0	0	511	511	0	495	39	41	
0	0	0	0	0	509	511	0	497	38	42	
1	0	0	0	0	510	511	0	500	38	43	
2	0	0	0	0	509	510	0	517	38	43	
3	0	0	0	0	509	510	0	525	38	43	
4	0	0	0	0	509	509	0	539	38	42	
5	0	0	0	0	510	508	0	573	38	41	
6	0	0	0	0	510	507	0	586	38	40	
7	0	0	0	0	511	507	0	587	39	40	
8	0	0	0	0	511	507	0	583	38	41	
9	0	0	0	0	508	507	0	569	38	42	
10	0	0	0	0	511	510	0	566	38	43	
11	0	0	0	0	508	511	0	563	38	43	
12	0	0	0	0	508	510	0	568	38	43	
13	0	0	0	0	508	508	0	560	38	41	
14	0	0	0	0	506	509	0	538	38	40	
15	0	0	0	0	508	509	0	511	39	40	
0	0	0	0	0	508	508	0	486	38	41	
1	0	0	0	0	508	509	0	481	38	42	
2	0	0	0	0	508	508	0	491	38	43	
3	0	0	0	0	509	508	0	504	38	43	
4	0	0	0	0	509	508	0	493	38	43	
5	0	0	0	0	508	509	0	481	38	42	
6	0	0	0	0	510	508	0	486	38	40	
7	0	0	0	0	508	507	0	493	38	40	
8	0	0	0	0	509	506	0	491	38	41	
9	0	0	0	0	509	506	0	480	38	42	
10	0	0	0	0	509	507	0	475	38	43	
11	0	0	0	0	508	507	0	485	38	43	
12	0	0	0	0	510	507	0	509	38	43	
13	0	0	0	0	508	508	0	525	38	42	
14	0	0	0	0	508	508	0	518	38	41	
15	0	0	0	0	507	507	0	506	39	40	
0	0	0	0	0	508	508	0	506	38	40	
1	0	0	0	0	510	507	0	511	38	41	
2	0	0	0	0	508	507	0	513	38	42	
3	0	0	0	0	510	509	0	508	38	43	
4	0	0	0	0	509	508	0	497	38	43	
5	0	0	0	0	511	507	0	496	38	42	
6	0	0	0	0	510	508	0	497	38	41	
7	0	0	0	0	510	509	0	513	39	40	
8	0	0	0	0	508	510	0	527	38	40	
9	0	0	0	0	509	510	0	532	38	41	
10	0	0	0	0	505	508	0	540	38	42	
11	0	0	0	0	508	509	0	542	38	43	
12	0	0	0	0	510	509	0	546	38	43	
13	0	0	0	0	510	508	0	536	38	43	
14	0	0	0	0	508	509	0	517	38	41	
15	0	0	0	0	508	510	0	506	39	40	
0	0	0	0	0	510	510	0	503	38	40	
1	0	0	0	0	510	511	0	486	38	40	
2	0	0	0	0	510	510	0	467	38	42	
3	0	0	0	0	510	510	0	459	38	42	
4	0	0	0	0	511	511	0	466	38	43	
5	0	0	0	0	509	510	0	482	38	43	
6	0	0	0	0	506	511	0	500	38	42	
7	0	0	0	0	509	510	0	500	39	40	
8	0	0	0	0	509	510	0	511	38	40	
9	0	0	0	0	510	508	0	529	38	40	
10	0	0	0	0	510	508	0	531	38	41	
11	0	0	0	0	509	508	0	528	38	42	
12	0	0	0	0	508	508	0	511	38	43	
13	0	0	0	0	508	507	0	480	38	43	
14	0	0	0	0	507	508	0	467	38	42	
15	0	0	0	0	506	508	0	446	39	41	
0	0	0	0	0	508	508	0	438	38	40	
1	0	0	0	0	507	508	0	432	38	40	
2	0	0	0	0	507	506	0	435	38	41	
3	0	0	0	0	507	505	0	457	38	42	
4	0	0	0	0	508	507	0	480	38	42	
5	0	0	0	0	510	507	0	504	38	43	
6	0	0	0	0	510	507	0	510	38	42	
7	0	0	0	0	510	508	0	503	39	41	
8	0	0	0	0	511	508	0	497	38	40	
9	0	0	0	0	510	508	0	481	38	39	
10	0	0	0	0	509	508	0	481	38	40	
11	0	0	0	0	508	508	0	480	38	41	
12	0	0	0	0	510	510	0	472	38	42	
13	0	0	0	0	510	509	0	472	38	43	
14	0	0	0	0	509	510	0	477	38	42	
15	0	0	0	0	509	509	0	480	39	42	
0	0	0	0	0	508	507	0	490	38	40	
1	0	0	0	0	506	508	0	483	38	39	
2	0	0	0	0	508	508	0	492	38	40	
3	0	0	0	0	509	507	0	518	38	41	
4	0	0	0	0	508	507	0	538	38	42	
5	0	0	0	0	509	507	0	551	38	42	
6	0	0	0	0	508	507	0	537	38	43	
7	0	0	0	0	510	507	0	530	39	42	
8	0	0	0	0	509	508	0	517	38	41	
9	0	0	0	0	509	508	0	495	38	39	
10	0	0	0	0	512	506	0	478	38	39	
11	0	0	0	0	508	505	0	454	38	40	
12	0	0	0	0	508	506	0	446	38	41	
13	0	0	0	0	510	505	0	443	38	42	
14	0	0	0	0	508	505	0	440	38	43	
15	0	0	0	0	509	505	0	436	39	42	
0	0	0	0	0	509	506	0	435	38	41	
1	0	0	0	0	509	505	0	443	38	40	
2	0	0	0	0	507	505	0	433	38	39	
3	0	0	0	0	510	506	0	451	38	40	
4	0	0	0	0	511	506	0	470	38	41	
5	0	0	0	0	511	506	0	474	38	42	
6	0	0	0	0	510	504	0	481	38	42	
7	0	0	0	0	508	503	0	503	39	42	
8	0	0	0	0	508	504	0	534	38	41	
9	0	0	0	0	508	505	0	545	38	40	
10	0	0	0	0	507	507	0	545	38	39	
11	0	0	0	0	508	505	0	547	38	39	
12	0	0	0	0	509	505	0	546	38	41	
13	0	0	0	0	509	507	0	536	38	41	
14	0	0	0	0	508	507	0	536	38	42	
15	0	0	0	0	510	508	0	537	39	42	
0	0	0	0	0	508	511	0	546	38	42	
1	0	0	0	0	507	508	0	559	38	40	
2	0	0	0	0	507	509	0	568	38	39	
3	0	0	0	0	508	508	0	571	38	39	
4	0	0	0	0	507	506	0	560	38	40	
5	0	0	0	0	508	506	0	553	38	41	
6	0	0	0	0	508	507	0	548	38	42	
7	0	0	0	0	509	509	0	534	39	42	
8	0	0	0	0	511	509	0	516	38	42	
9	0	0	0	0	511	509	0	487	38	41	
10	0	0	0	0	507	509	0	470	38	39	
11	0	0	0	0	510	507	0	465	38	39	
12	0	0	0	0	511	507	0	480	38	40	
13	0	0	0	0	512	509	0	487	38	41	
14	0	0	0	0	514	509	0	476	38	41	
15	0	0	0	0	513	509	0	475	39	42	
0	0	0	0	0	512	508	0	478	38	42	
1	0	0	0	0	516	509	0	497	38	41	
2	0	0	0	0	512	508	0	505	38	40	
3	0	0	0	0	510	508	0	509	38	39	
4	0	0	0	0	510	508	0	514	38	39	
5	0	0	0	0	509	509	0	522	38	40	
6	0	0	0	0	509	510	0	531	38	41	
7	0	0	0	0	509	511	0	547	39	42	
8	0	0	0	0	509	508	0	562	38	42	
9	0	0	0	0	511	508	0	572	38	41	
10	0	0	0	0	509	509	0	577	38	40	
11	0	0	0	0	510	508	0	587	38	39	
12	0	0	0	0	508	509	0	579	38	39	
13	0	0	0	0	507	509	0	564	38	40	
14	0	0	0	0	509	509	0	547	38	41	
15	0	0	0	0	508	509	0	550	39	42	
0	0	0	0	0	507	509	0	556	38	42	
1	0	0	0	0	508	509	0	557	38	41	
2	0	0	0	0	509	508	0	544	38	40	
3	0	0	0	0	508	508	0	537	38	39	
4	0	0	0	0	509	508	0	540	38	39	
5	0	0	0	0	508	508	0	551	38	39	
6	0	0	0	0	508	509	0	548	38	40	
7	0	0	0	0	508	508	0	546	38	41	
8	0	0	0	0	510	509	0	549	38	42	
9	0	0	0	0	509	509	0	548	38	42	
10	0	0	0	0	512	510	0	562	38	41	
11	0	0	0	0	510	512	0	530	38	39	
12	0	0	0	0	509	511	0	509	38	39	
13	0	0	0	0	508	510	0	501	38	39	
14	0	0	0	0	508	509	0	498	38	40	
15	0	0	0	0	507	510	0	493	39	41	
0	0	0	0	0	505	510	0	474	38	42	
1	0	0	0	0	508	509	0	467	38	42	
2	0	0	0	0	510	509	0	482	38	41	
3	0	0	0	0	510	509	0	497	38	40	
4	0	0	0	0	505	509	0	521	38	39	
5	0	0	0	0	507	510	0	538	38	39	
6	0	0	0	0	511	508	0	527	38	40	
7	0	0	0	0	510	507	0	511	39	41	
8	0	0	0	0	510	506	0	506	38	41	
9	0	0	0	0	508	505	0	500	38	42	
10	0	0	0	0	512	504	0	501	38	41	
11	0	0	0	0	511	504	0	502	38	40	
12	0	0	0	0	510	507	0	501	38	39	
13	0	0	0	0	508	508	0	504	38	38	
14	0	0	0	0	507	509	0	523	38	39	
15	0	0	0	0	509	509	0	535	39	40	
0	0	0	0	0	509	510	0	531	38	41	
1	0	0	0	0	509	508	0	531	38	41	
2	0	0	0	0	509	507	0	535	38	41	
3	0	0	0	0	508	507	0	532	38	40	
4	0	0	0	0	510	509	0	526	38	39	
5	0	0	0	0	510	510	0	505	38	38	
6	0	0	0	0	510	510	0	483	38	39	
7	0	0	0	0	508	510	0	467	38	40	
8	0	0	0	0	508	508	0	465	38	41	
9	0	0	0	0	508	508	0	456	38	41	
10	0	0	0	0	508	510	0	439	38	41	
11	0	0	0	0	509	511	0	446	38	41	
12	0	0	0	0	510	512	0	453	38	40	
13	0	0	0	0	509	511	0	461	38	38	
14	0	0	0	0	509	511	0	479	38	38	
15	0	0	0	0	508	512	0	510	39	39	
0	0	0	0	0	508	511	0	523	38	40	
1	0	0	0	0	511	510	0	538	38	41	
2	0	0	0	0	508	512	0	547	38	41	
3	0	0	0	0	510	511	0	535	38	41	
4	0	0	0	0	508	510	0	502	38	40	
5	0	0	0	0	511	511	0	474	38	39	
6	0	0	0	0	509	511	0	457	38	38	
7	0	0	0	0	511	511	0	455	38	39	
8	0	0	0	0	510	510	0	440	38	40	
9	0	0	0	0	508	510	0	417	38	41	
10	0	0	0	0	509	508	0	408	38	41	
11	0	0	0	0	509	508	0	407	38	41	
12	0	0	0	0	509	508	0	415	38	40	
13	0	0	0	0	507	509	0	419	38	39	
14	0	0	0	0	505	507	0	423	38	38	
15	0	0	0	0	508	507	0	430	39	38	
0	0	0	0	0	510	508	0	435	38	39	
1	0	0	0	0	510	508	0	444	38	40	
2	0	0	0	0	509	509	0	454	38	41	
3	0	0	0	0	510	507	0	462	38	41	
4	0	0	0	0	508	505	0	468	38	41	
5	0	0	0	0	509	506	0	478	38	39	
6	0	0	0	0	509	506	0	489	38	38	
7	0	0	0	0	511	507	0	493	39	38	
8	0	0	0	0	508	508	0	480	38	39	
9	0	0	0	0	506	507	0	468	38	40	
10	0	0	0	0	510	507	0	469	38	41	
11	0	0	0	0	508	506	0	467	38	41	
12	0	0	0	0	509	507	0	464	38	41	
13	0	0	0	0	509	506	0	460	38	40	
14	0	0	0	0	510	507	0	467	38	39	
15	0	0	0	0	510	508	0	492	39	38	
0	0	0	0	0	509	507	0	486	38	39	
1	0	0	0	0	511	507	0	476	38	40	
2	0	0	0	0	512	508	0	481	38	40	
3	0	0	0	0	508	509	0	489	38	41	
4	0	0	0	0	508	510	0	493	38	41	
5	0	0	0	0	509	510	0	480	38	40	
6	0	0	0	0	507	509	0	472	38	39	
7	0	0	0	0	508	509	0	470	39	38	
8	0	0	0	0	510	509	0	482	38	38	
9	0	0	0	0	508	509	0	498	38	39	
10	0	0	0	0	508	507	0	499	38	40	
11	0	0	0	0	509	508	0	503	38	41	
12	0	0	0	0	508	508	0	498	38	41	
13	0	0	0	0	510	509	0	513	38	40	
14	0	0	0	0	512	507	0	534	38	39	
15	0	0	0	0	510	507	0	552	39	38	
0	0	0	0	0	511	508	0	569	38	38	
1	0	0	0	0	509	506	0	584	38	39	
2	0	0	0	0	509	505	0	594	38	40	
3	0	0	0	0	508	505	0	588	38	41	
4	0	0	0	0	507	504	0	563	38	41	
5	0	0	0	0	508	504	0	551	38	41	
6	0	0	0	0	508	504	0	531	38	40	
7	0	0	0	0	509	504	0	515	39	38	
8	0	0	0	0	511	504	0	511	38	38	
9	0	0	0	0	507	505	0	514	38	38	
10	0	0	0	0	507	505	0	530	38	39	
11	0	0	0	0	508	503	0	545	38	40	
12	0	0	0	0	506	503	0	577	38	41	
13	0	0	0	0	507	502	0	606	38	41	
14	0	0	0	0	509	504	0	621	38	40	
15	0	0	0	0	512	504	0	611	39	39	
0	0	0	0	0	512	504	0	581	38	38	
1	0	0	0	0	511	504	0	556	38	38	
2	0	0	0	0	509	505	0	545	38	39	
3	0	0	0	0	510	507	0	540	38	40	
4	0	0	0	0	510	507	0	520	38	41	
5	0	0	0	0	509	507	0	508	38	41	
6	0	0	0	0	510	507	0	505	38	40	
7	0	0	0	0	509	509	0	486	38	39	
8	0	0	0	0	509	506	0	469	38	38	
9	0	0	0	0	508	506	0	456	38	38	
10	0	0	0	0	508	505	0	458	38	39	
11	0	0	0	0	511	505	0	481	38	40	
12	0	0	0	0	510	505	0	503	38	40	
13	0	0	0	0	509	505	0	532	38	41	
14	0	0	0	0	507	506	0	548	38	40	
15	0	0	0	0	508	509	0	553	39	39	
0	0	0	0	0	510	509	0	571	38	38	
1	0	0	0	0	510	508	0	579	38	38	
2	0	0	0	0	508	508	0	571	38	38	
3	0	0	0	0	509	509	0	550	38	39	
4	0	0	0	0	510	508	0	524	38	40	
5	0	0	0	0	508	508	0	502	38	41	
6	0	0	0	0	509	509	0	475	38	41	
7	0	0	0	0	508	510	0	459	38	40	
8	0	0	0	0	508	509	0	449	38	39	
9	0	0	0	0	510	511	0	457	38	38	
10	0	0	0	0	510	510	0	476	38	38	
11	0	0	0	0	510	507	0	486	38	39	
12	0	0	0	0	510	507	0	491	38	40	
13	0	0	0	0	510	509	0	468	38	40	
14	0	0	0	0	507	508	0	460	38	41	
15	0	0	0	0	507	507	0	468	38	40	
0	0	0	0	0	507	508	0	492	38	39	
1	0	0	0	0	510	506	0	491	38	38	
2	0	0	0	0	514	507	0	494	38	38	
3	0	0	0	0	511	506	0	489	38	38	
4	0	0	0	0	510	504	0	489	38	39	
5	0	0	0	0	509	505	0	493	38	40	
6	0	0	0	0	510	505	0	487	38	41	
7	0	0	0	0	509	505	0	476	39	40	
8	0	0	0	0	510	507	0	470	38	39	
9	0	0	0	0	509	508	0	476	38	38	
10	0	0	0	0	510	508	0	488	38	38	
11	0	0	0	0	509	510	0	495	38	38	
12	0	0	0	0	507	510	0	512	38	39	
13	0	0	0	0	507	509	0	489	38	40	
14	0	0	0	0	507	510	0	490	38	41	
15	0	0	0	0	510	508	0	499	39	40	
0	0	0	0	0	508	510	0	511	38	40	
1	0	0	0	0	509	509	0	507	38	38	
2	0	0	0	0	510	508	0	494	38	38	
3	0	0	0	0	510	508	0	496	38	38	
4	0	0	0	0	510	508	0	509	38	39	
5	0	0	0	0	509	508	0	529	38	40	
6	0	0	0	0	509	508	0	527	38	40	
7	0	0	0	0	509	508	0	519	39	41	
8	0	0	0	0	509	509	0	527	38	40	
9	0	0	0	0	511	508	0	541	38	39	
10	0	0	0	0	511	508	0	547	38	38	
11	0	0	0	0	510	510	0	545	38	38	
12	0	0	0	0	508	509	0	527	38	38	
13	0	0	0	0	510	511	0	514	38	39	
14	0	0	0	0	508	511	0	516	38	40	
15	0	0	0	0	507	509	0	516	39	41	
0	0	0	0	0	507	510	0	507	38	40	
1	0	0	0	0	510	512	0	498	38	39	
2	0	0	0	0	512	512	0	492	38	38	
3	0	0	0	0	510	512	0	499	38	37	
4	0	0	0	0	509	511	0	497	38	38	
5	0	0	0	0	508	510	0	504	38	39	
6	0	0	0	0	509	509	0	503	38	40	
7	0	0	0	0	509	510	0	507	39	40	
8	0	0	0	0	510	510	0	504	38	40	
9	0	0	0	0	509	510	0	499	38	40	
10	0	0	0	0	509	510	0	497	38	38	
11	0	0	0	0	510	510	0	496	38	38	
12	0	0	0	0	509	509	0	504	38	38	
13	0	0	0	0	510	507	0	505	38	39	
14	0	0	0	0	511	508	0	505	38	40	
15	0	0	0	0	509	507	0	501	39	40	
0	0	0	0	0	510	507	0	501	38	41	
1	0	0	0	0	507	506	0	510	38	40	
2	0	0	0	0	512	508	0	513	38	39	
3	0	0	0	0	508	508	0	522	38	38	
4	0	0	0	0	507	508	0	531	38	38	
5	0	0	0	0	506	508	0	522	38	38	
6	0	0	0	0	507	507	0	512	38	39	
7	0	0	0	0	505	508	0	513	39	40	
8	0	0	0	0	508	508	0	518	38	41	
9	0	0	0	0	508	508	0	519	38	40	
10	0	0	0	0	509	505	0	514	38	39	
11	0	0	0	0	508	506	0	515	38	38	
12	0	0	0	0	509	504	0	520	38	37	
13	0	0	0	0	507	505	0	511	38	38	
14	0	0	0	0	508	505	0	486	38	39	
15	0	0	0	0	507	507	0	469	39	40	
0	0	0	0	0	507	508	0	468	38	40	
1	0	0	0	0	507	509	0	479	38	40	
2	0	0	0	0	508	508	0	494	38	40	
3	0	0	0	0	509	508	0	493	38	38	
4	0	0	0	0	510	507	0	490	38	38	
5	0	0	0	0	508	507	0	496	38	38	
6	0	0	0	0	510	508	0	495	38	39	
7	0	0	0	0	507	509	0	493	39	40	
8	0	0	0	0	507	506	0	481	38	40	
9	0	0	0	0	509	505	0	468	38	41	
10	0	0	0	0	508	506	0	473	38	40	
11	0	0	0	0	510	507	0	494	38	39	
12	0	0	0	0	510	506	0	514	38	38	
13	0	0	0	0	508	506	0	522	38	38	
14	0	0	0	0	508	507	0	514	38	38	
15	0	0	0	0	510	509	0	495	39	39	
0	0	0	0	0	509	508	0	472	38	40	
1	0	0	0	0	507	509	0	463	38	41	
2	0	0	0	0	508	508	0	449	38	40	
3	0	0	0	0	509	507	0	442	38	39	
4	0	0	0	0	511	508	0	447	38	38	
5	0	0	0	0	508	508	0	459	38	38	
6	0	0	0	0	508	506	0	472	38	38	
7	0	0	0	0	510	506	0	472	38	39	
8	0	0	0	0	508	506	0	479	38	40	
9	0	0	0	0	510	506	0	495	38	41	
10	0	0	0	0	511	504	0	512	38	41	
11	0	0	0	0	511	504	0	530	38	40	
12	0	0	0	0	509	506	0	520	38	39	
13	0	0	0	0	509	508	0	512	38	38	
14	0	0	0	0	508	508	0	506	38	38	
15	0	0	0	0	511	509	0	508	39	39	
0	0	0	0	0	511	508	0	511	38	40	
1	0	0	0	0	511	508	0	524	38	40	
2	0	0	0	0	509	508	0	531	38	41	
3	0	0	0	0	509	507	0	538	38	40	
4	0	0	0	0	511	507	0	537	38	39	
5	0	0	0	0	511	509	0	529	38	38	
6	0	0	0	0	507	509	0	505	38	38	
7	0	0	0	0	508	506	0	489	39	39	
8	0	0	0	0	508	505	0	489	38	39	
9	0	0	0	0	510	507	0	513	38	40	
10	0	0	0	0	508	506	0	517	38	41	
11	0	0	0	0	509	507	0	525	38	41	
12	0	0	0	0	511	505	0	532	38	39	
13	0	0	0	0	511	506	0	544	38	38	
14	0	0	0	0	508	507	0	553	38	38	
15	0	0	0	0	510	506	0	568	39	38	
0	0	0	0	0	510	507	0	563	38	39	
1	0	0	0	0	508	508	0	545	38	40	
2	0	0	0	0	511	506	0	528	38	41	
3	0	0	0	0	512	507	0	519	38	41	
4	0	0	0	0	511	507	0	518	38	40	
5	0	0	0	0	510	505	0	499	38	39	
6	0	0	0	0	510	505	0	478	38	38	
7	0	0	0	0	510	506	0	481	39	38	
8	0	0	0	0	510	508	0	496	38	39	
9	0	0	0	0	510	508	0	519	38	40	
10	0	0	0	0	509	509	0	527	38	41	
11	0	0	0	0	508	510	0	537	38	41	
12	0	0	0	0	508	511	0	565	38	40	
13	0	0	0	0	507	510	0	592	38	39	
14	0	0	0	0	508	509	0	601	38	38	
15	0	0	0	0	508	509	0	591	39	38	
0	0	0	0	0	508	508	0	563	38	39	
1	0	0	0	0	508	508	0	554	38	40	
2	0	0	0	0	510	509	0	553	38	40	
3	0	0	0	0	510	508	0	551	38	41	
4	0	0	0	0	508	508	0	556	38	41	
5	0	0	0	0	509	509	0	559	38	40	
6	0	0	0	0	512	510	0	557	38	38	
7	0	0	0	0	511	509	0	552	38	38	
8	0	0	0	0	508	509	0	550	38	38	
9	0	0	0	0	510	508	0	541	38	39	
10	0	0	0	0	509	506	0	545	38	40	
11	0	0	0	0	508	505	0	565	38	41	
12	0	0	0	0	510	506	0	574	38	41	
13	0	0	0	0	509	507	0	558	38	40	
14	0	0	0	0	511	508	0	551	38	39	
15	0	0	0	0	510	509	0	535	38	38	
0	0	0	0	0	510	508	0	517	38	38	
1	0	0	0	0	508	510	0	510	38	39	
2	0	0	0	0	508	510	0	500	38	40	
3	0	0	0	0	508	510	0	496	38	41	
4	0	0	0	0	510	511	0	495	38	41	
5	0	0	0	0	510	510	0	504	38	41	
6	0	0	0	0	509	511	0	507	38	39	
7	0	0	0	0	510	512	0	510	39	38	
8	0	0	0	0	510	512	0	505	38	38	
9	0	0	0	0	509	511	0	490	38	39	
10	0	0	0	0	509	511	0	474	38	40	
11	0	0	0	0	510	511	0	467	38	41	
12	0	0	0	0	512	511	0	472	38	41	
13	0	0	0	0	510	512	0	481	38	41	
14	0	0	0	0	511	512	0	490	38	40	
15	0	0	0	0	511	512	0	494	39	39	
0	0	0	0	0	511	511	0	507	38	38	
1	0	0	0	0	508	510	0	518	38	38	
2	0	0	0	0	508	511	0	521	38	40	
3	0	0	0	0	507	510	0	498	38	40	
4	0	0	0	0	507	509	0	492	38	41	
5	0	0	0	0	507	508	0	496	38	41	
6	0	0	0	0	508	507	0	506	38	40	
7	0	0	0	0	509	506	0	497	39	39	
8	0	0	0	0	507	507	0	477	38	38	
9	0	0	0	0	508	505	0	470	38	38	
10	0	0	0	0	508	506	0	460	38	39	
11	0	0	0	0	505	506	0	462	38	40	
12	0	0	0	0	507	508	0	469	38	41	
13	0	0	0	0	507	509	0	477	38	41	
14	0	0	0	0	508	508	0	482	38	41	
15	0	0	0	0	507	509	0	474	39	40	
0	0	0	0	0	511	510	0	482	38	38	
1	0	0	0	0	511	509	0	505	38	38	
2	0	0	0	0	510	511	0	528	38	39	
3	0	0	0	0	509	509	0	551	38	40	
4	0	0	0	0	508	508	0	556	38	41	
5	0	0	0	0	507	508	0	559	38	41	
6	0	0	0	0	507	507	0	567	38	41	
7	0	0	0	0	506	508	0	571	39	40	
8	0	0	0	0	507	509	0	569	38	39	
9	0	0	0	0	508	509	0	566	38	38	
10	0	0	0	0	510	508	0	560	38	39	
11	0	0	0	0	507	510	0	562	38	40	
12	0	0	0	0	508	510	0	549	38	40	
13	0	0	0	0	510	509	0	541	38	41	
14	0	0	0	0	511	507	0	540	38	41	
15	0	0	0	0	508	506	0	536	39	40	
0	0	0	0	0	509	508	0	533	38	39	
1	0	0	0	0	510	508	0	527	38	38	
2	0	0	0	0	508	507	0	532	38	38	
3	0	0	0	0	509	508	0	537	38	39	
4	0	0	0	0	507	508	0	534	38	40	
5	0	0	0	0	508	508	0	523	38	41	
6	0	0	0	0	510	508	0	526	38	41	
7	0	0	0	0	511	508	0	543	39	41	
8	0	0	0	0	510	506	0	566	38	40	
9	0	0	0	0	507	506	0	576	38	38	
10	0	0	0	0	508	506	0	582	38	38	
11	0	0	0	0	507	507	0	569	38	39	
12	0	0	0	0	510	507	0	566	38	40	
13	0	0	0	0	510	507	0	565	38	41	
14	0	0	0	0	509	506	0	557	38	41	
15	0	0	0	0	510	505	0	546	39	41	
0	0	0	0	0	509	505	0	541	38	40	
1	0	0	0	0	510	507	0	530	38	39	
2	0	0	0	0	508	506	0	519	38	38	
3	0	0	0	0	507	506	0	509	38	39	
4	0	0	0	0	507	507	0	510	38	40	
5	0	0	0	0	507	507	0	508	38	41	
6	0	0	0	0	508	508	0	513	38	41	
7	0	0	0	0	508	507	0	514	39	41	
8	0	0	0	0	507	507	0	505	38	40	
9	0	0	0	0	508	505	0	489	38	39	
