# OpenSignals Text File Format. Version 1
# {"98:D3:61:FD:78:31": {"position": 0, "device": "bitalino_rev", "device name": "98:D3:61:FD:78:31", "device connection": "BTH98:D3:61:FD:78:31", "sampling rate": 1000, "resolution": [4, 1, 1, 1, 1, 10, 10, 10, 10, 6, 6], "firmware version": 1282, "comments": "", "keywords": "", "mode": 0, "sync interval": 2, "date": "2024-4-12", "time": "12:38:35.742", "channels": [1, 2, 3, 4, 5, 6], "sensor": ["RAW", "RAW", "RAW", "RAW", "RAW", "RAW"], "label": ["A1", "A2", "A3", "A4", "A5", "A6"], "column": ["nSeq", "I1", "I2", "O1", "O2", "A1", "A2", "A3", "A4", "A5", "A6"], "special": [{}, {}, {}, {}, {}, {}], "digital IO": [0, 0, 1, 1]}}
# EndOfHeader
0	0	0	0	0	507	510	0	467	38	45	
1	0	0	0	0	506	509	0	438	38	47	
2	0	0	0	0	507	509	0	369	38	48	
3	0	0	0	0	508	509	0	295	38	47	
4	0	0	0	0	509	509	0	243	38	46	
5	0	0	0	0	510	510	0	211	38	44	
6	0	0	0	0	510	510	0	180	38	43	
7	0	0	0	0	506	510	0	149	38	43	
8	0	0	0	0	510	510	0	149	38	45	
9	0	0	0	0	511	509	0	155	38	46	
10	0	0	0	0	509	508	0	163	38	47	
11	0	0	0	0	508	508	0	163	38	47	
12	0	0	0	0	509	509	0	158	38	46	
13	0	0	0	0	512	507	0	163	38	44	
14	0	0	0	0	509	507	0	167	38	43	
15	0	0	0	0	510	506	0	154	38	43	
0	0	0	0	0	508	507	0	142	38	44	
1	0	0	0	0	508	507	0	120	38	46	
2	0	0	0	0	510	507	0	114	38	47	
3	0	0	0	0	511	507	0	107	38	48	
4	0	0	0	0	509	508	0	97	38	47	
5	0	0	0	0	506	507	0	87	38	45	
6	0	0	0	0	505	507	0	88	38	43	
7	0	0	0	0	506	508	0	103	38	43	
8	0	0	0	0	507	509	0	117	38	44	
9	0	0	0	0	511	510	0	110	38	45	
10	0	0	0	0	513	508	0	117	38	47	
11	0	0	0	0	511	507	0	135	38	48	
12	0	0	0	0	510	507	0	152	38	47	
13	0	0	0	0	510	508	0	167	38	45	
14	0	0	0	0	507	511	0	177	38	43	
15	0	0	0	0	507	510	0	176	38	43	
0	0	0	0	0	504	511	0	171	38	43	
1	0	0	0	0	506	510	0	189	38	45	
2	0	0	0	0	505	507	0	204	38	46	
3	0	0	0	0	506	507	0	220	38	47	
4	0	0	0	0	504	509	0	230	38	47	
5	0	0	0	0	507	511	0	232	38	46	
6	0	0	0	0	512	510	0	252	38	44	
7	0	0	0	0	515	511	0	250	38	43	
8	0	0	0	0	513	510	0	247	38	43	
9	0	0	0	0	508	509	0	231	38	44	
10	0	0	0	0	509	510	0	218	38	46	
11	0	0	0	0	512	509	0	216	38	47	
12	0	0	0	0	511	510	0	211	38	48	
13	0	0	0	0	515	510	0	222	38	47	
14	0	0	0	0	514	508	0	226	38	45	
15	0	0	0	0	511	508	0	226	38	43	
0	0	0	0	0	504	507	0	241	38	43	
1	0	0	0	0	504	509	0	261	38	44	
2	0	0	0	0	506	510	0	276	38	46	
3	0	0	0	0	509	509	0	295	38	47	
4	0	0	0	0	508	507	0	297	38	48	
5	0	0	0	0	500	509	0	300	38	47	
6	0	0	0	0	491	510	0	313	38	45	
7	0	0	0	0	494	510	0	312	38	43	
8	0	0	0	0	512	508	0	317	38	43	
9	0	0	0	0	537	508	0	307	38	43	
10	0	0	0	0	540	507	0	294	38	45	
11	0	0	0	0	521	506	0	291	38	46	
12	0	0	0	0	498	506	0	297	38	47	
13	0	0	0	0	498	509	0	319	38	47	
14	0	0	0	0	502	509	0	345	38	46	
15	0	0	0	0	507	509	0	359	38	44	
0	0	0	0	0	507	510	0	371	38	43	
1	0	0	0	0	508	510	0	376	38	43	
2	0	0	0	0	508	510	0	387	38	45	
3	0	0	0	0	509	510	0	387	38	46	
4	0	0	0	0	508	511	0	390	38	47	
5	0	0	0	0	509	510	0	400	38	48	
6	0	0	0	0	510	509	0	386	38	46	
7	0	0	0	0	508	508	0	357	38	45	
8	0	0	0	0	509	509	0	339	38	43	
9	0	0	0	0	508	508	0	336	38	43	
10	0	0	0	0	507	506	0	325	38	44	
11	0	0	0	0	507	504	0	315	38	46	
12	0	0	0	0	509	504	0	301	38	47	
13	0	0	0	0	509	505	0	296	38	48	
14	0	0	0	0	509	504	0	311	38	47	
15	0	0	0	0	508	503	0	313	38	45	
0	0	0	0	0	506	503	0	311	38	43	
1	0	0	0	0	508	505	0	297	38	43	
2	0	0	0	0	509	505	0	294	38	44	
3	0	0	0	0	509	504	0	297	38	45	
4	0	0	0	0	509	505	0	304	38	47	
5	0	0	0	0	508	504	0	307	38	47	
6	0	0	0	0	508	504	0	300	38	47	
7	0	0	0	0	508	504	0	294	38	46	
8	0	0	0	0	508	505	0	293	38	44	
9	0	0	0	0	509	506	0	300	38	43	
10	0	0	0	0	508	506	0	297	38	43	
11	0	0	0	0	510	508	0	287	38	45	
12	0	0	0	0	511	507	0	296	38	46	
13	0	0	0	0	508	508	0	311	38	47	
14	0	0	0	0	511	508	0	347	38	48	
15	0	0	0	0	509	508	0	380	38	46	
0	0	0	0	0	508	510	0	403	38	44	
1	0	0	0	0	506	509	0	410	38	43	
2	0	0	0	0	507	507	0	412	38	43	
3	0	0	0	0	508	508	0	393	38	44	
4	0	0	0	0	511	509	0	396	38	46	
5	0	0	0	0	510	508	0	403	38	47	
6	0	0	0	0	512	508	0	402	38	48	
7	0	0	0	0	510	507	0	414	38	47	
8	0	0	0	0	507	505	0	412	38	45	
9	0	0	0	0	510	507	0	418	38	43	
10	0	0	0	0	505	506	0	420	38	43	
11	0	0	0	0	506	504	0	417	38	44	
12	0	0	0	0	508	505	0	429	38	45	
13	0	0	0	0	508	507	0	435	38	47	
14	0	0	0	0	510	507	0	433	38	47	
15	0	0	0	0	507	505	0	427	38	47	
0	0	0	0	0	507	504	0	423	38	46	
1	0	0	0	0	510	505	0	428	38	44	
2	0	0	0	0	510	506	0	432	38	43	
3	0	0	0	0	509	508	0	444	38	43	
4	0	0	0	0	512	508	0	453	38	45	
5	0	0	0	0	510	507	0	468	38	46	
6	0	0	0	0	511	505	0	490	38	47	
7	0	0	0	0	510	506	0	488	38	47	
8	0	0	0	0	509	505	0	460	38	46	
9	0	0	0	0	508	507	0	438	38	44	
10	0	0	0	0	508	507	0	416	38	43	
11	0	0	0	0	507	507	0	415	38	43	
12	0	0	0	0	508	508	0	435	38	44	
13	0	0	0	0	509	506	0	453	38	46	
14	0	0	0	0	508	509	0	449	38	47	
15	0	0	0	0	509	509	0	438	38	48	
0	0	0	0	0	508	510	0	434	38	47	
1	0	0	0	0	510	509	0	433	38	45	
2	0	0	0	0	507	509	0	441	38	43	
3	0	0	0	0	509	508	0	441	38	43	
4	0	0	0	0	509	506	0	438	38	44	
5	0	0	0	0	508	506	0	444	38	45	
6	0	0	0	0	506	507	0	452	38	47	
7	0	0	0	0	506	509	0	457	38	48	
8	0	0	0	0	511	508	0	455	38	47	
9	0	0	0	0	515	510	0	459	38	46	
10	0	0	0	0	517	510	0	467	38	44	
11	0	0	0	0	513	511	0	478	38	43	
12	0	0	0	0	510	510	0	486	38	43	
13	0	0	0	0	509	510	0	499	38	45	
14	0	0	0	0	508	509	0	500	38	46	
15	0	0	0	0	506	509	0	505	38	47	
0	0	0	0	0	508	508	0	525	38	47	
1	0	0	0	0	507	508	0	530	38	46	
2	0	0	0	0	506	508	0	528	38	44	
3	0	0	0	0	505	509	0	513	38	43	
4	0	0	0	0	507	509	0	509	38	43	
5	0	0	0	0	506	508	0	521	38	44	
6	0	0	0	0	508	508	0	540	38	46	
7	0	0	0	0	510	507	0	570	38	47	
8	0	0	0	0	511	508	0	595	38	48	
9	0	0	0	0	510	510	0	606	38	47	
10	0	0	0	0	511	508	0	606	38	45	
11	0	0	0	0	508	507	0	589	38	43	
12	0	0	0	0	507	507	0	577	38	43	
13	0	0	0	0	506	506	0	568	38	44	
14	0	0	0	0	511	507	0	560	38	45	
15	0	0	0	0	510	508	0	547	38	47	
0	0	0	0	0	507	509	0	538	38	48	
1	0	0	0	0	498	509	0	531	38	47	
2	0	0	0	0	487	510	0	543	38	45	
3	0	0	0	0	497	510	0	547	38	43	
4	0	0	0	0	523	507	0	562	38	43	
5	0	0	0	0	544	507	0	564	38	43	
6	0	0	0	0	535	506	0	568	38	45	
7	0	0	0	0	510	506	0	575	38	46	
8	0	0	0	0	495	508	0	572	38	47	
9	0	0	0	0	500	508	0	540	38	47	
10	0	0	0	0	504	508	0	526	38	46	
11	0	0	0	0	510	508	0	532	38	44	
12	0	0	0	0	510	509	0	533	38	43	
13	0	0	0	0	512	506	0	545	38	43	
14	0	0	0	0	512	505	0	557	38	44	
15	0	0	0	0	509	504	0	564	38	46	
0	0	0	0	0	508	504	0	548	38	47	
1	0	0	0	0	507	504	0	522	38	48	
2	0	0	0	0	508	504	0	519	38	47	
3	0	0	0	0	511	503	0	532	38	45	
4	0	0	0	0	506	504	0	549	38	43	
5	0	0	0	0	507	505	0	530	38	43	
6	0	0	0	0	506	505	0	527	38	44	
7	0	0	0	0	510	506	0	532	38	46	
8	0	0	0	0	507	507	0	533	38	47	
9	0	0	0	0	507	507	0	538	38	48	
10	0	0	0	0	509	507	0	542	38	47	
11	0	0	0	0	510	507	0	541	38	45	
12	0	0	0	0	510	507	0	554	38	43	
13	0	0	0	0	510	507	0	564	38	43	
14	0	0	0	0	511	508	0	568	38	43	
15	0	0	0	0	512	508	0	567	38	45	
0	0	0	0	0	510	508	0	556	38	46	
1	0	0	0	0	510	508	0	545	38	47	
2	0	0	0	0	511	508	0	543	38	47	
3	0	0	0	0	510	508	0	535	38	46	
4	0	0	0	0	508	509	0	524	38	44	
5	0	0	0	0	510	508	0	515	38	43	
6	0	0	0	0	508	509	0	516	38	43	
7	0	0	0	0	507	510	0	515	38	45	
8	0	0	0	0	508	509	0	517	38	46	
9	0	0	0	0	510	508	0	517	38	47	
10	0	0	0	0	510	508	0	513	38	48	
11	0	0	0	0	512	507	0	514	38	46	
12	0	0	0	0	508	508	0	519	38	44	
13	0	0	0	0	509	509	0	528	38	43	
14	0	0	0	0	509	508	0	521	38	43	
15	0	0	0	0	507	508	0	516	38	44	
0	0	0	0	0	505	508	0	510	38	46	
1	0	0	0	0	506	506	0	507	38	47	
2	0	0	0	0	508	507	0	508	38	48	
3	0	0	0	0	510	508	0	529	38	47	
4	0	0	0	0	512	509	0	524	38	45	
5	0	0	0	0	515	509	0	526	38	43	
6	0	0	0	0	514	507	0	539	38	42	
7	0	0	0	0	512	506	0	531	38	43	
8	0	0	0	0	507	509	0	523	38	45	
9	0	0	0	0	505	510	0	519	38	46	
10	0	0	0	0	507	509	0	502	38	47	
11	0	0	0	0	508	510	0	518	38	47	
12	0	0	0	0	507	509	0	535	38	46	
13	0	0	0	0	507	509	0	537	38	44	
14	0	0	0	0	511	508	0	538	38	43	
15	0	0	0	0	507	507	0	547	38	43	
0	0	0	0	0	509	505	0	547	38	45	
1	0	0	0	0	510	508	0	535	38	46	
2	0	0	0	0	510	510	0	522	38	47	
3	0	0	0	0	509	509	0	521	38	47	
4	0	0	0	0	507	507	0	536	38	46	
5	0	0	0	0	508	506	0	558	38	44	
6	0	0	0	0	506	506	0	578	38	43	
7	0	0	0	0	508	505	0	585	38	43	
8	0	0	0	0	510	505	0	587	38	44	
9	0	0	0	0	511	504	0	591	38	46	
10	0	0	0	0	510	504	0	587	38	47	
11	0	0	0	0	507	505	0	592	38	47	
12	0	0	0	0	509	508	0	595	38	47	
13	0	0	0	0	510	507	0	592	38	45	
14	0	0	0	0	508	508	0	608	38	43	
15	0	0	0	0	508	507	0	626	38	42	
0	0	0	0	0	508	508	0	614	38	44	
1	0	0	0	0	510	508	0	612	38	45	
2	0	0	0	0	508	507	0	598	38	47	
3	0	0	0	0	510	507	0	579	38	47	
4	0	0	0	0	510	507	0	562	38	47	
5	0	0	0	0	510	507	0	554	38	46	
6	0	0	0	0	511	508	0	539	38	44	
7	0	0	0	0	507	508	0	534	38	42	
8	0	0	0	0	507	509	0	523	38	43	
9	0	0	0	0	506	509	0	510	38	45	
10	0	0	0	0	508	508	0	488	38	46	
11	0	0	0	0	509	508	0	487	38	47	
12	0	0	0	0	512	507	0	494	38	47	
13	0	0	0	0	513	506	0	511	38	46	
14	0	0	0	0	513	505	0	540	38	44	
15	0	0	0	0	511	508	0	559	38	43	
0	0	0	0	0	507	508	0	558	38	43	
1	0	0	0	0	507	508	0	537	38	44	
2	0	0	0	0	507	507	0	530	38	46	
3	0	0	0	0	510	507	0	536	38	47	
4	0	0	0	0	509	507	0	546	38	47	
5	0	0	0	0	509	509	0	542	38	47	
6	0	0	0	0	510	509	0	527	38	45	
7	0	0	0	0	510	510	0	528	38	43	
8	0	0	0	0	509	509	0	531	38	42	
9	0	0	0	0	508	509	0	543	38	44	
10	0	0	0	0	509	511	0	548	38	45	
11	0	0	0	0	510	510	0	550	38	47	
12	0	0	0	0	509	508	0	570	38	47	
13	0	0	0	0	511	508	0	587	38	47	
14	0	0	0	0	507	509	0	588	38	45	
15	0	0	0	0	509	510	0	581	38	43	
0	0	0	0	0	507	509	0	578	38	42	
1	0	0	0	0	508	509	0	596	38	43	
2	0	0	0	0	509	509	0	591	38	45	
3	0	0	0	0	507	509	0	601	38	46	
4	0	0	0	0	509	509	0	608	38	47	
5	0	0	0	0	510	508	0	593	38	47	
6	0	0	0	0	508	508	0	580	38	46	
7	0	0	0	0	509	507	0	586	38	44	
8	0	0	0	0	508	505	0	598	38	43	
9	0	0	0	0	508	506	0	588	38	43	
10	0	0	0	0	513	507	0	573	38	44	
11	0	0	0	0	514	506	0	577	38	46	
12	0	0	0	0	514	507	0	591	38	47	
13	0	0	0	0	508	508	0	605	38	47	
14	0	0	0	0	505	507	0	609	38	47	
15	0	0	0	0	504	508	0	601	38	45	
0	0	0	0	0	507	507	0	600	38	43	
1	0	0	0	0	509	507	0	598	38	43	
2	0	0	0	0	511	505	0	591	38	44	
3	0	0	0	0	510	507	0	556	38	45	
4	0	0	0	0	508	506	0	529	38	47	
5	0	0	0	0	507	504	0	508	38	47	
6	0	0	0	0	509	505	0	504	38	47	
7	0	0	0	0	508	508	0	499	38	45	
8	0	0	0	0	508	509	0	496	38	43	
9	0	0	0	0	505	510	0	488	38	42	
10	0	0	0	0	508	511	0	510	38	43	
11	0	0	0	0	513	510	0	537	38	45	
12	0	0	0	0	515	510	0	564	38	46	
13	0	0	0	0	515	510	0	600	38	47	
14	0	0	0	0	509	509	0	616	38	47	
15	0	0	0	0	501	510	0	615	38	46	
0	0	0	0	0	500	510	0	604	38	44	
1	0	0	0	0	493	509	0	601	38	43	
2	0	0	0	0	495	507	0	589	38	43	
3	0	0	0	0	511	507	0	579	38	44	
4	0	0	0	0	535	508	0	569	38	46	
5	0	0	0	0	538	508	0	583	38	47	
6	0	0	0	0	519	508	0	600	38	47	
7	0	0	0	0	501	509	0	605	38	47	
8	0	0	0	0	497	510	0	597	38	45	
9	0	0	0	0	504	509	0	595	38	43	
10	0	0	0	0	505	510	0	593	38	43	
11	0	0	0	0	508	510	0	595	38	44	
12	0	0	0	0	508	511	0	599	38	45	
13	0	0	0	0	508	511	0	588	38	47	
14	0	0	0	0	512	510	0	582	38	47	
15	0	0	0	0	508	510	0	578	38	47	
0	0	0	0	0	508	509	0	577	38	45	
1	0	0	0	0	510	509	0	575	38	43	
2	0	0	0	0	511	508	0	563	38	42	
3	0	0	0	0	511	508	0	559	38	43	
4	0	0	0	0	508	508	0	551	38	45	
5	0	0	0	0	504	508	0	540	38	46	
6	0	0	0	0	505	508	0	527	38	47	
7	0	0	0	0	510	508	0	513	38	47	
8	0	0	0	0	515	508	0	519	38	46	
9	0	0	0	0	512	508	0	527	38	44	
10	0	0	0	0	512	507	0	546	38	43	
11	0	0	0	0	508	507	0	572	38	43	
12	0	0	0	0	503	510	0	580	38	44	
13	0	0	0	0	508	509	0	567	38	46	
14	0	0	0	0	511	510	0	553	38	47	
15	0	0	0	0	512	510	0	556	38	47	
0	0	0	0	0	512	510	0	544	38	46	
1	0	0	0	0	510	511	0	530	38	45	
2	0	0	0	0	510	510	0	516	38	43	
3	0	0	0	0	509	511	0	508	38	43	
4	0	0	0	0	507	511	0	484	38	44	
5	0	0	0	0	510	512	0	482	38	46	
6	0	0	0	0	508	511	0	488	38	47	
7	0	0	0	0	506	510	0	496	38	48	
8	0	0	0	0	508	508	0	508	38	47	
9	0	0	0	0	505	509	0	528	38	45	
10	0	0	0	0	509	508	0	539	38	43	
11	0	0	0	0	510	507	0	532	38	43	
12	0	0	0	0	512	505	0	534	38	43	
13	0	0	0	0	511	505	0	539	38	45	
14	0	0	0	0	515	506	0	553	38	46	
15	0	0	0	0	512	507	0	557	38	47	
0	0	0	0	0	509	508	0	566	38	47	
1	0	0	0	0	508	508	0	588	38	46	
2	0	0	0	0	509	506	0	590	38	44	
3	0	0	0	0	507	505	0	585	38	43	
4	0	0	0	0	507	505	0	566	38	43	
5	0	0	0	0	510	505	0	541	38	45	
6	0	0	0	0	510	506	0	532	38	46	
7	0	0	0	0	509	506	0	537	38	47	
8	0	0	0	0	508	506	0	551	38	48	
9	0	0	0	0	510	507	0	558	38	46	
10	0	0	0	0	510	507	0	555	38	44	
11	0	0	0	0	509	507	0	554	38	43	
12	0	0	0	0	509	507	0	552	38	43	
13	0	0	0	0	507	507	0	552	38	44	
14	0	0	0	0	507	507	0	542	38	46	
15	0	0	0	0	505	507	0	521	38	47	
0	0	0	0	0	508	507	0	516	38	48	
1	0	0	0	0	514	508	0	523	38	47	
2	0	0	0	0	514	508	0	523	38	45	
3	0	0	0	0	513	508	0	536	38	43	
4	0	0	0	0	508	507	0	551	38	43	
5	0	0	0	0	507	507	0	548	38	44	
6	0	0	0	0	504	507	0	538	38	45	
7	0	0	0	0	502	505	0	536	38	47	
8	0	0	0	0	504	504	0	548	38	47	
9	0	0	0	0	512	505	0	565	38	47	
10	0	0	0	0	514	507	0	585	38	46	
11	0	0	0	0	513	507	0	593	38	44	
12	0	0	0	0	512	508	0	607	38	43	
13	0	0	0	0	507	509	0	624	38	43	
14	0	0	0	0	508	508	0	620	38	45	
15	0	0	0	0	510	509	0	605	38	46	
0	0	0	0	0	507	509	0	579	38	47	
1	0	0	0	0	509	510	0	560	38	47	
2	0	0	0	0	508	509	0	557	38	46	
3	0	0	0	0	509	509	0	547	38	44	
4	0	0	0	0	511	508	0	552	38	43	
5	0	0	0	0	510	508	0	568	38	43	
6	0	0	0	0	509	508	0	578	38	44	
7	0	0	0	0	507	507	0	572	38	46	
8	0	0	0	0	507	507	0	570	38	47	
9	0	0	0	0	511	508	0	587	38	48	
10	0	0	0	0	508	508	0	584	38	47	
11	0	0	0	0	510	508	0	590	38	45	
12	0	0	0	0	509	508	0	589	38	43	
13	0	0	0	0	508	507	0	584	38	43	
14	0	0	0	0	509	506	0	590	38	44	
15	0	0	0	0	509	506	0	600	38	45	
0	0	0	0	0	510	505	0	611	38	47	
1	0	0	0	0	511	506	0	615	38	48	
2	0	0	0	0	509	507	0	613	38	47	
3	0	0	0	0	509	505	0	600	38	46	
4	0	0	0	0	510	507	0	579	38	44	
5	0	0	0	0	509	506	0	560	38	43	
6	0	0	0	0	510	507	0	545	38	43	
7	0	0	0	0	511	507	0	540	38	45	
8	0	0	0	0	509	508	0	529	38	46	
9	0	0	0	0	512	508	0	526	38	47	
10	0	0	0	0	509	509	0	526	38	47	
11	0	0	0	0	510	508	0	524	38	46	
12	0	0	0	0	507	507	0	527	38	44	
13	0	0	0	0	508	507	0	538	38	43	
14	0	0	0	0	509	508	0	551	38	43	
15	0	0	0	0	509	509	0	561	38	44	
0	0	0	0	0	509	508	0	557	38	46	
1	0	0	0	0	508	507	0	550	38	47	
2	0	0	0	0	509	508	0	552	38	48	
3	0	0	0	0	508	509	0	564	38	47	
4	0	0	0	0	508	509	0	573	38	45	
5	0	0	0	0	511	509	0	572	38	43	
6	0	0	0	0	510	507	0	559	38	43	
7	0	0	0	0	508	507	0	552	38	44	
8	0	0	0	0	508	508	0	544	38	45	
9	0	0	0	0	509	508	0	537	38	47	
10	0	0	0	0	509	508	0	530	38	48	
11	0	0	0	0	508	507	0	519	38	47	
12	0	0	0	0	510	507	0	516	38	46	
13	0	0	0	0	509	507	0	522	38	43	
14	0	0	0	0	509	506	0	535	38	43	
15	0	0	0	0	508	507	0	540	38	43	
0	0	0	0	0	507	506	0	513	38	45	
1	0	0	0	0	508	505	0	507	38	46	
2	0	0	0	0	511	507	0	523	38	47	
3	0	0	0	0	508	507	0	548	38	47	
4	0	0	0	0	510	507	0	556	38	46	
5	0	0	0	0	511	507	0	543	38	44	
6	0	0	0	0	511	507	0	540	38	43	
7	0	0	0	0	508	508	0	539	38	43	
8	0	0	0	0	508	508	0	546	38	44	
9	0	0	0	0	506	508	0	545	38	46	
10	0	0	0	0	508	508	0	553	38	47	
11	0	0	0	0	508	506	0	568	38	48	
12	0	0	0	0	510	508	0	588	38	47	
13	0	0	0	0	510	508	0	583	38	45	
14	0	0	0	0	510	509	0	588	38	43	
15	0	0	0	0	509	508	0	592	38	43	
0	0	0	0	0	507	508	0	591	38	44	
1	0	0	0	0	507	507	0	586	38	46	
2	0	0	0	0	508	507	0	578	38	47	
3	0	0	0	0	512	508	0	566	38	48	
4	0	0	0	0	513	509	0	553	38	47	
5	0	0	0	0	513	508	0	545	38	45	
6	0	0	0	0	512	508	0	547	38	43	
7	0	0	0	0	506	508	0	556	38	43	
8	0	0	0	0	501	508	0	547	38	43	
9	0	0	0	0	505	510	0	543	38	45	
10	0	0	0	0	510	510	0	542	38	46	
11	0	0	0	0	509	511	0	540	38	47	
12	0	0	0	0	513	510	0	537	38	47	
13	0	0	0	0	515	510	0	528	38	46	
14	0	0	0	0	515	510	0	529	38	44	
15	0	0	0	0	514	510	0	531	38	43	
0	0	0	0	0	508	511	0	523	38	43	
1	0	0	0	0	507	511	0	518	38	44	
2	0	0	0	0	507	511	0	513	38	46	
3	0	0	0	0	506	511	0	505	38	47	
4	0	0	0	0	508	508	0	505	38	48	
5	0	0	0	0	509	508	0	515	38	47	
6	0	0	0	0	507	506	0	534	38	45	
7	0	0	0	0	508	505	0	527	38	43	
8	0	0	0	0	510	505	0	515	38	43	
9	0	0	0	0	511	507	0	503	38	44	
10	0	0	0	0	511	507	0	492	38	46	
11	0	0	0	0	508	506	0	486	38	47	
12	0	0	0	0	508	508	0	492	38	48	
13	0	0	0	0	509	508	0	482	38	47	
14	0	0	0	0	508	508	0	480	38	45	
15	0	0	0	0	508	509	0	497	38	43	
0	0	0	0	0	508	508	0	509	38	43	
1	0	0	0	0	510	509	0	508	38	43	
2	0	0	0	0	510	507	0	507	38	45	
3	0	0	0	0	508	507	0	524	38	46	
4	0	0	0	0	510	508	0	538	38	47	
5	0	0	0	0	510	507	0	550	38	47	
6	0	0	0	0	509	506	0	555	38	46	
7	0	0	0	0	506	508	0	551	38	44	
8	0	0	0	0	507	507	0	552	38	43	
9	0	0	0	0	510	507	0	552	38	43	
10	0	0	0	0	510	506	0	564	38	45	
11	0	0	0	0	510	506	0	566	38	46	
12	0	0	0	0	507	507	0	550	38	47	
13	0	0	0	0	510	507	0	542	38	48	
14	0	0	0	0	507	508	0	560	38	46	
15	0	0	0	0	507	508	0	573	38	44	
0	0	0	0	0	509	508	0	579	38	43	
1	0	0	0	0	511	508	0	587	38	43	
2	0	0	0	0	513	508	0	596	38	44	
3	0	0	0	0	513	509	0	615	38	46	
4	0	0	0	0	508	510	0	624	38	47	
5	0	0	0	0	504	509	0	621	38	48	
6	0	0	0	0	507	507	0	607	38	47	
7	0	0	0	0	510	508	0	604	38	45	
8	0	0	0	0	509	507	0	576	38	43	
9	0	0	0	0	508	506	0	567	38	43	
10	0	0	0	0	507	505	0	564	38	44	
11	0	0	0	0	511	505	0	572	38	45	
12	0	0	0	0	511	505	0	584	38	47	
13	0	0	0	0	511	505	0	575	38	47	
14	0	0	0	0	509	507	0	589	38	47	
15	0	0	0	0	509	507	0	588	38	46	
0	0	0	0	0	508	508	0	577	38	44	
1	0	0	0	0	508	509	0	580	38	43	
2	0	0	0	0	509	508	0	575	38	43	
3	0	0	0	0	508	509	0	559	38	45	
4	0	0	0	0	511	510	0	534	38	46	
5	0	0	0	0	509	511	0	524	38	47	
6	0	0	0	0	508	510	0	532	38	47	
7	0	0	0	0	510	509	0	550	38	46	
8	0	0	0	0	509	508	0	559	38	44	
9	0	0	0	0	510	506	0	562	38	43	
10	0	0	0	0	507	506	0	556	38	43	
11	0	0	0	0	510	507	0	556	38	44	
12	0	0	0	0	508	507	0	565	38	46	
13	0	0	0	0	509	505	0	580	38	47	
14	0	0	0	0	512	506	0	583	38	48	
15	0	0	0	0	512	505	0	587	38	47	
0	0	0	0	0	512	505	0	591	38	45	
1	0	0	0	0	507	506	0	588	38	43	
2	0	0	0	0	508	507	0	604	38	43	
3	0	0	0	0	508	507	0	595	38	44	
4	0	0	0	0	506	506	0	568	38	45	
5	0	0	0	0	509	505	0	551	38	47	
6	0	0	0	0	509	504	0	547	38	47	
7	0	0	0	0	509	503	0	563	38	47	
8	0	0	0	0	512	503	0	594	38	46	
9	0	0	0	0	508	504	0	589	38	44	
10	0	0	0	0	510	505	0	585	38	43	
11	0	0	0	0	509	506	0	579	38	43	
12	0	0	0	0	509	506	0	576	38	45	
13	0	0	0	0	508	507	0	580	38	46	
14	0	0	0	0	506	507	0	546	38	47	
15	0	0	0	0	508	505	0	527	38	47	
0	0	0	0	0	511	505	0	510	38	46	
1	0	0	0	0	510	506	0	505	38	44	
2	0	0	0	0	507	508	0	510	38	43	
3	0	0	0	0	508	507	0	509	38	43	
4	0	0	0	0	511	507	0	504	38	44	
5	0	0	0	0	511	507	0	500	38	46	
6	0	0	0	0	509	506	0	505	38	47	
7	0	0	0	0	511	505	0	510	38	48	
8	0	0	0	0	509	505	0	505	38	47	
9	0	0	0	0	507	507	0	513	38	45	
10	0	0	0	0	509	509	0	519	38	43	
11	0	0	0	0	508	510	0	542	38	43	
12	0	0	0	0	507	510	0	553	38	44	
13	0	0	0	0	511	510	0	551	38	45	
14	0	0	0	0	509	509	0	564	38	47	
15	0	0	0	0	507	509	0	574	38	48	
0	0	0	0	0	510	508	0	568	38	47	
1	0	0	0	0	512	509	0	549	38	46	
2	0	0	0	0	513	510	0	535	38	44	
3	0	0	0	0	513	509	0	534	38	43	
4	0	0	0	0	510	508	0	538	38	43	
5	0	0	0	0	510	507	0	554	38	45	
6	0	0	0	0	508	507	0	562	38	46	
7	0	0	0	0	508	509	0	557	38	47	
8	0	0	0	0	509	509	0	553	38	47	
9	0	0	0	0	508	509	0	546	38	46	
10	0	0	0	0	510	509	0	551	38	44	
11	0	0	0	0	507	509	0	557	38	43	
12	0	0	0	0	506	510	0	561	38	43	
13	0	0	0	0	506	508	0	559	38	44	
14	0	0	0	0	505	508	0	566	38	46	
15	0	0	0	0	507	508	0	580	38	47	
0	0	0	0	0	514	508	0	574	38	48	
1	0	0	0	0	513	508	0	566	38	47	
2	0	0	0	0	515	509	0	547	38	45	
3	0	0	0	0	510	508	0	527	38	43	
4	0	0	0	0	509	508	0	510	38	43	
5	0	0	0	0	508	509	0	506	38	44	
6	0	0	0	0	509	510	0	508	38	45	
7	0	0	0	0	508	510	0	519	38	47	
8	0	0	0	0	508	509	0	521	38	48	
9	0	0	0	0	507	507	0	519	38	47	
10	0	0	0	0	507	507	0	518	38	45	
11	0	0	0	0	510	507	0	519	38	43	
12	0	0	0	0	509	507	0	527	38	43	
13	0	0	0	0	509	507	0	539	38	43	
14	0	0	0	0	507	508	0	553	38	45	
15	0	0	0	0	508	507	0	558	38	46	
0	0	0	0	0	512	508	0	563	38	47	
1	0	0	0	0	511	506	0	560	38	47	
2	0	0	0	0	512	505	0	541	38	46	
3	0	0	0	0	508	507	0	527	38	44	
4	0	0	0	0	503	506	0	526	38	43	
5	0	0	0	0	501	505	0	536	38	43	
6	0	0	0	0	508	506	0	554	38	45	
7	0	0	0	0	510	507	0	572	38	46	
8	0	0	0	0	509	507	0	587	38	47	
9	0	0	0	0	509	509	0	578	38	48	
10	0	0	0	0	511	508	0	567	38	47	
11	0	0	0	0	511	506	0	571	38	45	
12	0	0	0	0	513	506	0	572	38	43	
13	0	0	0	0	510	507	0	571	38	43	
14	0	0	0	0	510	506	0	562	38	44	
15	0	0	0	0	509	508	0	546	38	46	
0	0	0	0	0	510	508	0	544	38	47	
1	0	0	0	0	506	508	0	539	38	48	
2	0	0	0	0	504	507	0	525	38	47	
3	0	0	0	0	511	507	0	531	38	45	
4	0	0	0	0	512	507	0	539	38	43	
5	0	0	0	0	515	507	0	539	38	43	
6	0	0	0	0	513	507	0	540	38	43	
7	0	0	0	0	512	507	0	536	38	45	
8	0	0	0	0	508	508	0	547	38	47	
9	0	0	0	0	507	508	0	564	38	47	
10	0	0	0	0	505	507	0	575	38	47	
11	0	0	0	0	509	506	0	588	38	46	
12	0	0	0	0	508	506	0	602	38	44	
13	0	0	0	0	508	506	0	614	38	43	
14	0	0	0	0	507	505	0	612	38	43	
15	0	0	0	0	509	506	0	606	38	45	
0	0	0	0	0	508	506	0	589	38	46	
1	0	0	0	0	509	505	0	566	38	47	
2	0	0	0	0	508	505	0	560	38	48	
3	0	0	0	0	508	505	0	559	38	47	
4	0	0	0	0	509	506	0	579	38	45	
5	0	0	0	0	509	507	0	600	38	43	
6	0	0	0	0	508	507	0	600	38	43	
7	0	0	0	0	510	509	0	590	38	44	
8	0	0	0	0	511	508	0	578	38	46	
9	0	0	0	0	509	507	0	574	38	47	
10	0	0	0	0	510	506	0	576	38	48	
11	0	0	0	0	509	507	0	579	38	47	
12	0	0	0	0	511	508	0	567	38	45	
13	0	0	0	0	510	509	0	542	38	43	
14	0	0	0	0	509	509	0	521	38	43	
15	0	0	0	0	510	508	0	511	38	44	
0	0	0	0	0	508	508	0	521	38	45	
1	0	0	0	0	506	508	0	516	38	47	
2	0	0	0	0	506	510	0	506	38	47	
3	0	0	0	0	505	509	0	507	38	47	
4	0	0	0	0	508	510	0	499	38	46	
5	0	0	0	0	509	508	0	501	38	44	
6	0	0	0	0	511	509	0	511	38	43	
7	0	0	0	0	512	509	0	514	38	43	
8	0	0	0	0	512	510	0	525	38	45	
9	0	0	0	0	513	510	0	525	38	46	
10	0	0	0	0	511	510	0	516	38	47	
11	0	0	0	0	511	508	0	512	38	48	
12	0	0	0	0	509	507	0	503	38	46	
13	0	0	0	0	510	507	0	512	38	44	
14	0	0	0	0	508	506	0	532	38	43	
15	0	0	0	0	507	507	0	548	38	43	
0	0	0	0	0	508	509	0	557	38	44	
1	0	0	0	0	507	511	0	563	38	46	
2	0	0	0	0	508	511	0	572	38	47	
3	0	0	0	0	507	511	0	579	38	48	
4	0	0	0	0	509	510	0	566	38	47	
5	0	0	0	0	508	510	0	557	38	45	
6	0	0	0	0	507	509	0	553	38	43	
7	0	0	0	0	508	508	0	524	38	43	
8	0	0	0	0	509	507	0	516	38	44	
9	0	0	0	0	508	507	0	519	38	45	
10	0	0	0	0	507	507	0	518	38	47	
11	0	0	0	0	509	508	0	501	38	48	
12	0	0	0	0	508	509	0	505	38	47	
13	0	0	0	0	508	509	0	514	38	46	
14	0	0	0	0	509	510	0	515	38	44	
15	0	0	0	0	509	510	0	524	38	43	
0	0	0	0	0	511	508	0	529	38	43	
1	0	0	0	0	511	508	0	535	38	45	
2	0	0	0	0	510	508	0	536	38	46	
3	0	0	0	0	510	507	0	536	38	47	
4	0	0	0	0	508	506	0	515	38	48	
5	0	0	0	0	510	506	0	504	38	46	
6	0	0	0	0	508	506	0	513	38	44	
7	0	0	0	0	508	507	0	517	38	43	
8	0	0	0	0	510	507	0	500	38	43	
9	0	0	0	0	512	508	0	500	38	44	
10	0	0	0	0	508	508	0	509	38	46	
11	0	0	0	0	510	508	0	509	38	47	
12	0	0	0	0	509	509	0	519	38	48	
13	0	0	0	0	510	508	0	536	38	47	
14	0	0	0	0	508	508	0	556	38	45	
15	0	0	0	0	508	509	0	559	38	43	
0	0	0	0	0	507	509	0	563	38	43	
1	0	0	0	0	510	508	0	585	38	44	
2	0	0	0	0	511	508	0	598	38	45	
3	0	0	0	0	507	508	0	598	38	47	
4	0	0	0	0	510	508	0	588	38	48	
5	0	0	0	0	507	509	0	579	38	47	
6	0	0	0	0	509	508	0	577	38	46	
7	0	0	0	0	508	508	0	577	38	44	
8	0	0	0	0	510	508	0	573	38	43	
9	0	0	0	0	510	507	0	559	38	43	
10	0	0	0	0	509	507	0	552	38	45	
11	0	0	0	0	509	506	0	545	38	46	
12	0	0	0	0	510	505	0	541	38	47	
13	0	0	0	0	508	505	0	527	38	47	
14	0	0	0	0	507	507	0	515	38	46	
15	0	0	0	0	510	507	0	500	38	44	
0	0	0	0	0	508	506	0	477	38	43	
1	0	0	0	0	510	506	0	459	38	43	
2	0	0	0	0	512	506	0	452	38	44	
3	0	0	0	0	512	506	0	446	38	46	
4	0	0	0	0	508	506	0	463	38	47	
5	0	0	0	0	509	508	0	485	38	48	
6	0	0	0	0	510	508	0	502	38	47	
7	0	0	0	0	510	508	0	513	38	45	
8	0	0	0	0	507	508	0	515	38	43	
9	0	0	0	0	510	507	0	523	38	43	
10	0	0	0	0	509	505	0	532	38	44	
11	0	0	0	0	509	505	0	520	38	45	
12	0	0	0	0	509	508	0	526	38	47	
13	0	0	0	0	509	508	0	529	38	48	
14	0	0	0	0	509	508	0	528	38	47	
15	0	0	0	0	508	507	0	532	38	46	
0	0	0	0	0	507	507	0	559	38	44	
1	0	0	0	0	511	506	0	591	38	43	
2	0	0	0	0	508	508	0	601	38	43	
3	0	0	0	0	511	507	0	591	38	45	
4	0	0	0	0	509	506	0	580	38	46	
5	0	0	0	0	510	507	0	568	38	47	
6	0	0	0	0	509	508	0	549	38	47	
7	0	0	0	0	508	508	0	529	38	46	
8	0	0	0	0	507	508	0	526	38	44	
9	0	0	0	0	504	507	0	523	38	43	
10	0	0	0	0	506	506	0	519	38	43	
11	0	0	0	0	508	506	0	513	38	44	
12	0	0	0	0	510	506	0	512	38	46	
13	0	0	0	0	511	506	0	536	38	47	
14	0	0	0	0	515	507	0	553	38	48	
15	0	0	0	0	512	506	0	549	38	47	
0	0	0	0	0	509	508	0	535	38	45	
1	0	0	0	0	512	508	0	513	38	43	
2	0	0	0	0	510	506	0	502	38	43	
3	0	0	0	0	509	506	0	514	38	44	
4	0	0	0	0	510	507	0	509	38	46	
5	0	0	0	0	508	506	0	526	38	47	
6	0	0	0	0	505	505	0	523	38	48	
7	0	0	0	0	505	505	0	518	38	47	
8	0	0	0	0	506	504	0	519	38	45	
9	0	0	0	0	507	505	0	523	38	43	
10	0	0	0	0	512	507	0	525	38	43	
11	0	0	0	0	512	506	0	524	38	43	
12	0	0	0	0	512	507	0	527	38	45	
13	0	0	0	0	510	508	0	527	38	47	
14	0	0	0	0	508	507	0	527	38	47	
15	0	0	0	0	509	506	0	514	38	47	
0	0	0	0	0	512	505	0	507	38	46	
1	0	0	0	0	514	505	0	508	38	44	
2	0	0	0	0	511	507	0	505	38	43	
3	0	0	0	0	507	507	0	505	38	43	
4	0	0	0	0	504	507	0	506	38	45	
5	0	0	0	0	506	507	0	497	38	46	
6	0	0	0	0	507	506	0	497	38	47	
7	0	0	0	0	510	506	0	516	38	48	
8	0	0	0	0	508	507	0	534	38	47	
9	0	0	0	0	509	507	0	558	38	45	
10	0	0	0	0	507	507	0	570	38	43	
11	0	0	0	0	511	508	0	588	38	43	
12	0	0	0	0	509	508	0	594	38	44	
13	0	0	0	0	509	508	0	586	38	46	
14	0	0	0	0	508	508	0	577	38	47	
15	0	0	0	0	509	506	0	570	38	48	
0	0	0	0	0	506	507	0	559	38	47	
1	0	0	0	0	507	507	0	557	38	45	
2	0	0	0	0	511	508	0	557	38	43	
3	0	0	0	0	510	509	0	558	38	43	
4	0	0	0	0	510	507	0	565	38	44	
5	0	0	0	0	511	509	0	595	38	45	
6	0	0	0	0	511	510	0	613	38	47	
7	0	0	0	0	511	511	0	601	38	47	
8	0	0	0	0	510	508	0	586	38	47	
9	0	0	0	0	510	508	0	574	38	46	
10	0	0	0	0	508	508	0	571	38	44	
11	0	0	0	0	510	509	0	557	38	43	
12	0	0	0	0	510	509	0	520	38	43	
13	0	0	0	0	509	509	0	502	38	45	
14	0	0	0	0	512	509	0	499	38	46	
15	0	0	0	0	509	510	0	517	38	47	
0	0	0	0	0	508	510	0	536	38	48	
1	0	0	0	0	508	509	0	548	38	47	
2	0	0	0	0	508	508	0	544	38	45	
3	0	0	0	0	508	509	0	519	38	43	
4	0	0	0	0	509	508	0	505	38	43	
5	0	0	0	0	508	509	0	509	38	44	
6	0	0	0	0	507	510	0	516	38	46	
7	0	0	0	0	510	510	0	521	38	47	
8	0	0	0	0	508	512	0	514	38	48	
9	0	0	0	0	509	508	0	518	38	47	
10	0	0	0	0	509	508	0	524	38	45	
11	0	0	0	0	508	509	0	527	38	43	
12	0	0	0	0	511	508	0	517	38	43	
13	0	0	0	0	510	508	0	499	38	44	
14	0	0	0	0	507	508	0	493	38	45	
15	0	0	0	0	509	508	0	497	38	47	
0	0	0	0	0	510	511	0	482	38	48	
1	0	0	0	0	508	510	0	462	38	47	
2	0	0	0	0	512	510	0	469	38	46	
3	0	0	0	0	510	508	0	496	38	44	
4	0	0	0	0	509	506	0	516	38	43	
5	0	0	0	0	508	506	0	535	38	43	
6	0	0	0	0	510	507	0	550	38	45	
7	0	0	0	0	508	507	0	560	38	46	
8	0	0	0	0	511	508	0	552	38	47	
9	0	0	0	0	507	509	0	536	38	48	
10	0	0	0	0	510	509	0	539	38	46	
11	0	0	0	0	509	508	0	532	38	44	
12	0	0	0	0	510	508	0	518	38	43	
13	0	0	0	0	508	509	0	518	38	43	
14	0	0	0	0	508	511	0	516	38	44	
15	0	0	0	0	509	511	0	523	38	46	
0	0	0	0	0	510	509	0	518	38	47	
1	0	0	0	0	509	510	0	506	38	48	
2	0	0	0	0	508	511	0	508	38	47	
3	0	0	0	0	509	510	0	496	38	45	
4	0	0	0	0	511	511	0	486	38	43	
5	0	0	0	0	511	511	0	494	38	43	
6	0	0	0	0	508	511	0	487	38	44	
7	0	0	0	0	508	508	0	486	38	45	
8	0	0	0	0	510	508	0	487	38	47	
9	0	0	0	0	508	507	0	493	38	48	
10	0	0	0	0	509	507	0	488	38	47	
11	0	0	0	0	509	507	0	470	38	46	
12	0	0	0	0	508	507	0	468	38	44	
13	0	0	0	0	510	508	0	479	38	43	
14	0	0	0	0	506	508	0	492	38	43	
15	0	0	0	0	511	509	0	505	38	45	
0	0	0	0	0	509	507	0	520	38	46	
1	0	0	0	0	510	507	0	543	38	47	
2	0	0	0	0	510	508	0	571	38	48	
3	0	0	0	0	509	509	0	580	38	46	
4	0	0	0	0	509	509	0	578	38	44	
5	0	0	0	0	508	510	0	567	38	43	
6	0	0	0	0	508	509	0	570	38	43	
7	0	0	0	0	509	508	0	583	38	44	
8	0	0	0	0	509	505	0	588	38	46	
9	0	0	0	0	508	506	0	580	38	47	
10	0	0	0	0	507	504	0	584	38	48	
11	0	0	0	0	509	503	0	594	38	47	
12	0	0	0	0	511	502	0	604	38	45	
13	0	0	0	0	512	502	0	608	38	43	
14	0	0	0	0	511	503	0	602	38	43	
15	0	0	0	0	511	505	0	581	38	44	
0	0	0	0	0	508	505	0	561	38	46	
1	0	0	0	0	509	507	0	552	38	47	
2	0	0	0	0	508	508	0	553	38	48	
3	0	0	0	0	510	510	0	548	38	47	
4	0	0	0	0	510	511	0	533	38	46	
5	0	0	0	0	510	512	0	530	38	44	
6	0	0	0	0	507	511	0	537	38	43	
7	0	0	0	0	508	511	0	542	38	43	
8	0	0	0	0	508	511	0	538	38	45	
9	0	0	0	0	510	509	0	531	38	46	
10	0	0	0	0	510	510	0	532	38	47	
11	0	0	0	0	511	511	0	537	38	48	
12	0	0	0	0	506	509	0	534	38	46	
13	0	0	0	0	507	508	0	504	38	44	
14	0	0	0	0	507	507	0	484	38	43	
15	0	0	0	0	511	506	0	486	38	43	
0	0	0	0	0	506	507	0	477	38	45	
1	0	0	0	0	508	507	0	476	38	46	
2	0	0	0	0	507	508	0	467	38	47	
3	0	0	0	0	507	508	0	453	38	48	
4	0	0	0	0	508	510	0	451	38	47	
5	0	0	0	0	508	509	0	453	38	45	
6	0	0	0	0	509	510	0	474	38	43	
7	0	0	0	0	503	508	0	491	38	43	
8	0	0	0	0	500	506	0	503	38	44	
9	0	0	0	0	492	506	0	515	38	46	
10	0	0	0	0	492	508	0	511	38	47	
11	0	0	0	0	505	507	0	508	38	48	
12	0	0	0	0	534	508	0	500	38	47	
13	0	0	0	0	544	508	0	481	38	46	
14	0	0	0	0	539	506	0	478	38	44	
15	0	0	0	0	517	507	0	474	38	43	
0	0	0	0	0	504	507	0	482	38	44	
1	0	0	0	0	505	508	0	487	38	45	
2	0	0	0	0	505	507	0	503	38	47	
3	0	0	0	0	507	507	0	523	38	48	
4	0	0	0	0	507	508	0	532	38	48	
5	0	0	0	0	506	510	0	533	38	46	
6	0	0	0	0	504	510	0	524	38	44	
7	0	0	0	0	504	509	0	500	38	43	
8	0	0	0	0	505	508	0	490	38	43	
9	0	0	0	0	511	509	0	496	38	45	
10	0	0	0	0	514	507	0	506	38	46	
11	0	0	0	0	510	507	0	502	38	47	
12	0	0	0	0	505	507	0	484	38	48	
13	0	0	0	0	501	506	0	474	38	47	
14	0	0	0	0	504	507	0	473	38	45	
15	0	0	0	0	511	507	0	470	38	43	
0	0	0	0	0	512	507	0	463	38	43	
1	0	0	0	0	507	508	0	457	38	44	
2	0	0	0	0	504	508	0	461	38	46	
3	0	0	0	0	505	508	0	481	38	47	
4	0	0	0	0	509	507	0	482	38	48	
5	0	0	0	0	509	507	0	493	38	47	
6	0	0	0	0	510	507	0	485	38	45	
7	0	0	0	0	510	506	0	486	38	43	
8	0	0	0	0	509	507	0	485	38	43	
9	0	0	0	0	511	508	0	487	38	44	
10	0	0	0	0	511	508	0	500	38	45	
11	0	0	0	0	508	507	0	517	38	47	
12	0	0	0	0	510	508	0	536	38	48	
13	0	0	0	0	511	508	0	543	38	47	
14	0	0	0	0	510	508	0	551	38	46	
15	0	0	0	0	512	509	0	576	38	44	
0	0	0	0	0	509	508	0	597	38	43	
1	0	0	0	0	508	508	0	601	38	43	
2	0	0	0	0	511	510	0	600	38	45	
3	0	0	0	0	511	510	0	601	38	46	
4	0	0	0	0	510	509	0	596	38	47	
5	0	0	0	0	509	507	0	570	38	48	
6	0	0	0	0	508	507	0	544	38	47	
7	0	0	0	0	507	507	0	521	38	45	
8	0	0	0	0	508	508	0	487	38	43	
9	0	0	0	0	508	507	0	467	38	43	
10	0	0	0	0	508	506	0	460	38	44	
11	0	0	0	0	508	507	0	472	38	46	
12	0	0	0	0	509	509	0	496	38	47	
13	0	0	0	0	509	511	0	519	38	48	
14	0	0	0	0	508	511	0	528	38	47	
15	0	0	0	0	510	512	0	521	38	45	
0	0	0	0	0	509	511	0	512	38	43	
1	0	0	0	0	508	508	0	500	38	43	
2	0	0	0	0	509	508	0	494	38	44	
3	0	0	0	0	508	508	0	467	38	45	
4	0	0	0	0	509	508	0	444	38	47	
5	0	0	0	0	509	507	0	449	38	48	
6	0	0	0	0	508	505	0	465	38	47	
7	0	0	0	0	506	506	0	495	38	46	
8	0	0	0	0	508	506	0	518	38	44	
9	0	0	0	0	511	508	0	522	38	43	
10	0	0	0	0	511	507	0	528	38	43	
11	0	0	0	0	509	505	0	537	38	45	
12	0	0	0	0	508	506	0	543	38	46	
13	0	0	0	0	509	507	0	547	38	47	
14	0	0	0	0	510	508	0	544	38	48	
15	0	0	0	0	513	508	0	567	38	47	
0	0	0	0	0	512	509	0	558	38	45	
1	0	0	0	0	508	508	0	561	38	43	
2	0	0	0	0	508	507	0	553	38	43	
3	0	0	0	0	510	507	0	537	38	44	
4	0	0	0	0	508	509	0	522	38	46	
5	0	0	0	0	509	510	0	511	38	47	
6	0	0	0	0	508	511	0	509	38	48	
7	0	0	0	0	508	511	0	523	38	47	
8	0	0	0	0	510	510	0	526	38	45	
9	0	0	0	0	510	511	0	533	38	43	
10	0	0	0	0	509	510	0	542	38	43	
11	0	0	0	0	509	509	0	531	38	44	
12	0	0	0	0	510	509	0	526	38	45	
13	0	0	0	0	509	510	0	530	38	47	
14	0	0	0	0	510	507	0	543	38	48	
15	0	0	0	0	508	508	0	550	38	47	
0	0	0	0	0	508	508	0	546	38	46	
1	0	0	0	0	510	508	0	536	38	44	
2	0	0	0	0	506	507	0	526	38	43	
3	0	0	0	0	511	508	0	527	38	43	
4	0	0	0	0	511	508	0	540	38	45	
5	0	0	0	0	509	508	0	550	38	46	
6	0	0	0	0	510	508	0	539	38	47	
7	0	0	0	0	508	509	0	520	38	48	
8	0	0	0	0	507	508	0	483	38	46	
9	0	0	0	0	507	508	0	444	38	44	
10	0	0	0	0	508	506	0	432	38	43	
11	0	0	0	0	510	507	0	432	38	43	
12	0	0	0	0	508	507	0	445	38	44	
13	0	0	0	0	508	508	0	479	38	46	
14	0	0	0	0	509	507	0	498	38	47	
15	0	0	0	0	506	508	0	510	38	48	
0	0	0	0	0	508	508	0	510	38	47	
1	0	0	0	0	512	509	0	507	38	45	
2	0	0	0	0	511	509	0	508	38	43	
3	0	0	0	0	513	509	0	494	38	43	
4	0	0	0	0	513	508	0	474	38	44	
5	0	0	0	0	510	509	0	461	38	46	
6	0	0	0	0	506	509	0	443	38	47	
7	0	0	0	0	507	508	0	438	38	48	
8	0	0	0	0	505	510	0	441	38	47	
9	0	0	0	0	509	510	0	445	38	46	
10	0	0	0	0	511	508	0	463	38	44	
11	0	0	0	0	508	508	0	482	38	43	
12	0	0	0	0	509	508	0	498	38	43	
13	0	0	0	0	509	508	0	521	38	45	
14	0	0	0	0	509	507	0	545	38	46	
15	0	0	0	0	510	508	0	549	38	48	
0	0	0	0	0	509	508	0	546	38	48	
1	0	0	0	0	509	507	0	537	38	46	
2	0	0	0	0	508	507	0	526	38	44	
3	0	0	0	0	510	505	0	524	38	43	
4	0	0	0	0	508	506	0	500	38	43	
5	0	0	0	0	512	507	0	487	38	45	
6	0	0	0	0	508	507	0	482	38	46	
7	0	0	0	0	509	509	0	482	38	47	
8	0	0	0	0	509	510	0	483	38	48	
9	0	0	0	0	508	510	0	489	38	47	
10	0	0	0	0	511	509	0	505	38	45	
11	0	0	0	0	507	507	0	527	38	43	
12	0	0	0	0	508	507	0	558	38	43	
13	0	0	0	0	506	505	0	568	38	44	
14	0	0	0	0	508	506	0	572	38	46	
15	0	0	0	0	508	507	0	578	38	47	
0	0	0	0	0	508	509	0	583	38	48	
1	0	0	0	0	510	509	0	582	38	47	
2	0	0	0	0	508	506	0	577	38	46	
3	0	0	0	0	510	507	0	585	38	44	
4	0	0	0	0	510	507	0	565	38	43	
5	0	0	0	0	509	508	0	552	38	44	
6	0	0	0	0	510	509	0	529	38	45	
7	0	0	0	0	510	507	0	504	38	47	
8	0	0	0	0	507	507	0	481	38	48	
9	0	0	0	0	506	507	0	462	38	48	
10	0	0	0	0	508	507	0	451	38	46	
11	0	0	0	0	511	506	0	442	38	44	
12	0	0	0	0	509	507	0	448	39	43	
13	0	0	0	0	508	507	0	459	38	43	
14	0	0	0	0	507	507	0	475	38	45	
15	0	0	0	0	508	507	0	499	38	46	
0	0	0	0	0	510	505	0	518	38	47	
1	0	0	0	0	509	508	0	530	38	48	
2	0	0	0	0	511	508	0	537	38	47	
3	0	0	0	0	510	507	0	511	38	45	
4	0	0	0	0	508	507	0	518	39	43	
5	0	0	0	0	509	509	0	540	38	43	
6	0	0	0	0	511	508	0	566	38	44	
7	0	0	0	0	510	508	0	571	38	46	
8	0	0	0	0	509	507	0	558	38	47	
9	0	0	0	0	509	506	0	541	38	48	
10	0	0	0	0	509	507	0	524	38	47	
11	0	0	0	0	509	508	0	531	38	46	
12	0	0	0	0	510	508	0	525	38	44	
13	0	0	0	0	510	507	0	512	38	43	
14	0	0	0	0	509	507	0	504	38	44	
15	0	0	0	0	508	507	0	498	38	45	
0	0	0	0	0	507	507	0	507	38	47	
1	0	0	0	0	505	509	0	508	38	48	
2	0	0	0	0	507	509	0	511	38	48	
3	0	0	0	0	510	510	0	521	38	46	
4	0	0	0	0	510	511	0	532	38	44	
5	0	0	0	0	510	510	0	544	38	43	
6	0	0	0	0	510	509	0	552	38	43	
7	0	0	0	0	507	508	0	558	38	45	
8	0	0	0	0	508	509	0	565	38	46	
9	0	0	0	0	506	510	0	565	38	47	
10	0	0	0	0	507	509	0	562	38	48	
11	0	0	0	0	510	510	0	559	38	47	
12	0	0	0	0	514	509	0	559	38	45	
13	0	0	0	0	515	508	0	540	38	43	
14	0	0	0	0	514	508	0	544	38	43	
15	0	0	0	0	511	508	0	555	38	44	
0	0	0	0	0	506	507	0	565	38	46	
1	0	0	0	0	507	506	0	571	38	47	
2	0	0	0	0	508	508	0	580	38	48	
3	0	0	0	0	508	508	0	583	39	47	
4	0	0	0	0	510	509	0	592	39	45	
5	0	0	0	0	511	508	0	591	39	44	
6	0	0	0	0	509	508	0	583	39	43	
7	0	0	0	0	509	508	0	574	39	44	
8	0	0	0	0	508	508	0	569	39	45	
9	0	0	0	0	508	508	0	556	39	47	
10	0	0	0	0	510	508	0	556	39	48	
11	0	0	0	0	507	508	0	552	39	48	
12	0	0	0	0	509	507	0	540	39	46	
13	0	0	0	0	510	506	0	536	38	44	
14	0	0	0	0	507	509	0	530	38	43	
15	0	0	0	0	508	508	0	528	38	43	
0	0	0	0	0	507	507	0	521	38	45	
1	0	0	0	0	507	507	0	515	38	46	
2	0	0	0	0	509	505	0	503	38	47	
3	0	0	0	0	510	506	0	505	38	48	
4	0	0	0	0	506	506	0	525	38	47	
5	0	0	0	0	509	508	0	540	38	45	
6	0	0	0	0	508	508	0	540	38	43	
7	0	0	0	0	509	510	0	535	38	43	
8	0	0	0	0	511	510	0	515	38	44	
9	0	0	0	0	510	508	0	494	38	46	
10	0	0	0	0	509	508	0	491	38	47	
11	0	0	0	0	510	507	0	508	38	48	
12	0	0	0	0	511	508	0	525	38	47	
13	0	0	0	0	511	508	0	534	38	45	
14	0	0	0	0	508	508	0	530	38	43	
15	0	0	0	0	510	508	0	513	38	43	
0	0	0	0	0	509	506	0	513	38	44	
1	0	0	0	0	508	506	0	502	38	45	
2	0	0	0	0	510	505	0	489	38	47	
3	0	0	0	0	508	505	0	474	38	48	
4	0	0	0	0	507	507	0	460	38	47	
5	0	0	0	0	508	508	0	458	38	46	
6	0	0	0	0	510	508	0	467	38	44	
7	0	0	0	0	507	508	0	488	38	43	
8	0	0	0	0	510	509	0	504	38	43	
9	0	0	0	0	508	507	0	499	38	45	
10	0	0	0	0	510	506	0	499	38	46	
11	0	0	0	0	509	505	0	506	38	47	
12	0	0	0	0	507	506	0	495	38	48	
13	0	0	0	0	507	506	0	487	38	47	
14	0	0	0	0	506	505	0	467	38	45	
15	0	0	0	0	512	504	0	446	38	43	
0	0	0	0	0	513	504	0	433	38	43	
1	0	0	0	0	515	504	0	437	38	44	
2	0	0	0	0	515	505	0	457	38	46	
3	0	0	0	0	509	507	0	464	38	47	
4	0	0	0	0	506	508	0	468	38	48	
5	0	0	0	0	505	509	0	465	38	47	
6	0	0	0	0	507	508	0	459	38	45	
7	0	0	0	0	506	507	0	456	38	43	
8	0	0	0	0	507	507	0	469	38	43	
9	0	0	0	0	510	507	0	491	38	44	
10	0	0	0	0	512	508	0	511	38	45	
11	0	0	0	0	511	508	0	533	38	47	
12	0	0	0	0	510	507	0	556	38	48	
13	0	0	0	0	508	507	0	566	38	47	
14	0	0	0	0	509	508	0	554	38	46	
15	0	0	0	0	510	507	0	539	38	44	
0	0	0	0	0	507	508	0	519	38	43	
1	0	0	0	0	509	509	0	511	38	43	
2	0	0	0	0	509	508	0	498	38	45	
3	0	0	0	0	508	506	0	496	38	46	
4	0	0	0	0	509	507	0	491	38	47	
5	0	0	0	0	508	508	0	488	38	48	
6	0	0	0	0	509	510	0	473	38	46	
7	0	0	0	0	507	510	0	446	38	44	
8	0	0	0	0	508	510	0	413	38	43	
9	0	0	0	0	510	509	0	401	38	43	
10	0	0	0	0	512	508	0	419	38	44	
11	0	0	0	0	509	509	0	439	38	46	
12	0	0	0	0	508	509	0	444	38	47	
13	0	0	0	0	507	508	0	462	38	48	
14	0	0	0	0	509	509	0	491	38	47	
15	0	0	0	0	507	510	0	520	38	45	
0	0	0	0	0	508	511	0	529	38	43	
1	0	0	0	0	510	510	0	520	38	43	
2	0	0	0	0	509	509	0	506	38	44	
3	0	0	0	0	512	508	0	489	38	46	
4	0	0	0	0	510	508	0	463	38	47	
5	0	0	0	0	509	509	0	437	38	48	
6	0	0	0	0	509	509	0	423	38	47	
7	0	0	0	0	510	509	0	420	38	46	
8	0	0	0	0	510	508	0	420	38	44	
9	0	0	0	0	509	509	0	432	38	43	
10	0	0	0	0	508	507	0	446	38	43	
11	0	0	0	0	509	508	0	460	38	45	
12	0	0	0	0	507	510	0	479	38	46	
13	0	0	0	0	508	508	0	492	38	47	
14	0	0	0	0	509	507	0	505	38	48	
15	0	0	0	0	508	504	0	531	38	46	
0	0	0	0	0	508	504	0	551	38	44	
1	0	0	0	0	509	505	0	567	38	43	
2	0	0	0	0	510	508	0	572	38	43	
3	0	0	0	0	508	509	0	555	38	45	
4	0	0	0	0	508	508	0	543	38	46	
5	0	0	0	0	508	507	0	543	38	47	
6	0	0	0	0	510	507	0	554	38	48	
7	0	0	0	0	510	507	0	567	38	47	
8	0	0	0	0	508	507	0	565	38	45	
9	0	0	0	0	511	508	0	575	38	43	
10	0	0	0	0	511	508	0	578	38	43	
11	0	0	0	0	509	507	0	573	38	44	
12	0	0	0	0	510	508	0	564	38	46	
13	0	0	0	0	510	509	0	556	38	47	
14	0	0	0	0	508	510	0	542	38	48	
15	0	0	0	0	511	510	0	527	38	47	
0	0	0	0	0	507	509	0	522	38	46	
1	0	0	0	0	511	508	0	515	38	44	
2	0	0	0	0	510	509	0	512	38	43	
3	0	0	0	0	508	511	0	508	38	44	
4	0	0	0	0	509	512	0	503	38	45	
5	0	0	0	0	508	513	0	506	38	47	
6	0	0	0	0	507	512	0	520	38	48	
7	0	0	0	0	507	511	0	531	38	48	
8	0	0	0	0	510	511	0	525	38	46	
9	0	0	0	0	508	510	0	499	38	44	
10	0	0	0	0	508	510	0	484	38	43	
11	0	0	0	0	508	508	0	482	38	43	
12	0	0	0	0	512	507	0	486	38	45	
13	0	0	0	0	513	505	0	488	38	46	
14	0	0	0	0	514	505	0	482	38	47	
15	0	0	0	0	512	505	0	479	38	48	
0	0	0	0	0	503	505	0	468	38	47	
1	0	0	0	0	502	505	0	457	38	45	
2	0	0	0	0	509	503	0	455	38	43	
3	0	0	0	0	513	504	0	477	38	43	
4	0	0	0	0	511	505	0	494	38	44	
5	0	0	0	0	509	504	0	500	38	46	
6	0	0	0	0	510	504	0	510	38	47	
7	0	0	0	0	506	504	0	514	38	48	
8	0	0	0	0	507	507	0	498	38	47	
9	0	0	0	0	508	508	0	480	38	46	
10	0	0	0	0	505	508	0	458	38	44	
11	0	0	0	0	505	507	0	442	38	43	
12	0	0	0	0	503	508	0	446	38	44	
13	0	0	0	0	508	509	0	457	38	45	
14	0	0	0	0	514	507	0	487	38	47	
15	0	0	0	0	512	507	0	498	38	48	
0	0	0	0	0	511	507	0	507	38	48	
1	0	0	0	0	509	508	0	499	38	46	
2	0	0	0	0	512	507	0	484	38	44	
3	0	0	0	0	510	507	0	476	38	43	
4	0	0	0	0	512	507	0	472	38	43	
5	0	0	0	0	511	508	0	474	38	45	
6	0	0	0	0	511	508	0	487	38	46	
7	0	0	0	0	509	508	0	489	38	47	
8	0	0	0	0	508	509	0	502	38	48	
9	0	0	0	0	508	511	0	526	38	47	
10	0	0	0	0	507	511	0	550	38	45	
11	0	0	0	0	507	512	0	561	38	43	
12	0	0	0	0	508	511	0	556	38	43	
13	0	0	0	0	510	509	0	538	38	44	
14	0	0	0	0	509	508	0	527	38	46	
15	0	0	0	0	509	508	0	517	38	47	
0	0	0	0	0	508	509	0	508	38	48	
1	0	0	0	0	508	510	0	504	38	47	
2	0	0	0	0	508	510	0	513	38	45	
3	0	0	0	0	510	509	0	532	38	43	
4	0	0	0	0	508	511	0	555	38	43	
5	0	0	0	0	511	510	0	561	38	44	
6	0	0	0	0	511	507	0	546	38	45	
7	0	0	0	0	510	506	0	531	38	47	
8	0	0	0	0	508	506	0	523	38	48	
9	0	0	0	0	509	507	0	514	38	47	
10	0	0	0	0	508	507	0	501	38	46	
11	0	0	0	0	506	507	0	493	38	44	
12	0	0	0	0	508	506	0	494	38	43	
13	0	0	0	0	509	507	0	497	38	43	
14	0	0	0	0	508	508	0	511	38	45	
15	0	0	0	0	509	509	0	533	38	46	
0	0	0	0	0	509	509	0	555	38	47	
1	0	0	0	0	510	510	0	570	38	48	
2	0	0	0	0	510	511	0	579	38	47	
3	0	0	0	0	510	510	0	582	38	45	
4	0	0	0	0	511	510	0	577	38	43	
5	0	0	0	0	510	510	0	569	38	43	
6	0	0	0	0	509	510	0	566	38	44	
7	0	0	0	0	507	509	0	567	38	46	
8	0	0	0	0	509	510	0	572	38	47	
9	0	0	0	0	509	508	0	559	38	48	
10	0	0	0	0	509	508	0	539	38	47	
11	0	0	0	0	508	510	0	533	38	45	
12	0	0	0	0	509	510	0	533	38	43	
13	0	0	0	0	509	510	0	528	38	43	
14	0	0	0	0	505	510	0	524	38	44	
15	0	0	0	0	506	508	0	513	38	45	
0	0	0	0	0	509	507	0	510	38	47	
1	0	0	0	0	508	506	0	512	38	48	
2	0	0	0	0	508	508	0	508	38	47	
3	0	0	0	0	510	509	0	496	38	46	
4	0	0	0	0	512	510	0	491	38	44	
5	0	0	0	0	509	509	0	498	38	43	
6	0	0	0	0	508	510	0	523	38	43	
7	0	0	0	0	508	507	0	532	38	45	
8	0	0	0	0	509	508	0	528	38	46	
9	0	0	0	0	509	506	0	526	38	47	
10	0	0	0	0	509	508	0	526	38	48	
11	0	0	0	0	510	508	0	537	38	47	
12	0	0	0	0	510	508	0	548	38	45	
13	0	0	0	0	509	509	0	545	38	43	
14	0	0	0	0	509	508	0	534	38	43	
15	0	0	0	0	510	507	0	529	38	44	
0	0	0	0	0	510	506	0	532	38	46	
1	0	0	0	0	511	507	0	532	38	47	
2	0	0	0	0	509	507	0	527	38	48	
3	0	0	0	0	509	506	0	508	38	47	
4	0	0	0	0	511	505	0	508	38	45	
5	0	0	0	0	509	504	0	504	38	43	
6	0	0	0	0	508	504	0	502	38	43	
7	0	0	0	0	508	503	0	505	38	44	
8	0	0	0	0	512	503	0	521	38	46	
9	0	0	0	0	508	504	0	537	38	47	
10	0	0	0	0	508	504	0	550	38	48	
11	0	0	0	0	510	505	0	569	38	47	
12	0	0	0	0	511	507	0	570	38	46	
13	0	0	0	0	510	506	0	580	38	44	
14	0	0	0	0	509	505	0	568	38	43	
15	0	0	0	0	507	506	0	558	38	43	
0	0	0	0	0	510	508	0	554	38	45	
1	0	0	0	0	510	508	0	536	38	46	
2	0	0	0	0	509	508	0	529	38	48	
3	0	0	0	0	507	508	0	515	38	48	
4	0	0	0	0	508	508	0	527	38	46	
5	0	0	0	0	510	507	0	534	38	44	
6	0	0	0	0	510	508	0	548	38	43	
7	0	0	0	0	509	507	0	553	38	43	
8	0	0	0	0	510	507	0	558	38	45	
9	0	0	0	0	508	507	0	543	38	46	
10	0	0	0	0	509	507	0	530	38	47	
11	0	0	0	0	510	506	0	505	38	48	
12	0	0	0	0	508	506	0	472	38	47	
13	0	0	0	0	509	504	0	463	38	45	
14	0	0	0	0	510	507	0	464	38	43	
15	0	0	0	0	509	508	0	471	38	43	
0	0	0	0	0	508	508	0	483	38	44	
1	0	0	0	0	511	508	0	497	38	46	
2	0	0	0	0	511	507	0	514	38	47	
3	0	0	0	0	512	508	0	524	38	48	
4	0	0	0	0	507	508	0	527	38	47	
5	0	0	0	0	509	510	0	531	38	46	
6	0	0	0	0	509	508	0	531	38	44	
7	0	0	0	0	505	509	0	543	38	43	
8	0	0	0	0	510	508	0	548	38	43	
9	0	0	0	0	508	507	0	549	38	45	
10	0	0	0	0	508	509	0	532	38	47	
11	0	0	0	0	509	508	0	500	38	48	
12	0	0	0	0	507	508	0	481	38	48	
13	0	0	0	0	509	508	0	462	38	46	
14	0	0	0	0	508	510	0	449	38	44	
15	0	0	0	0	509	510	0	447	38	43	
0	0	0	0	0	509	509	0	454	38	43	
1	0	0	0	0	511	509	0	478	38	45	
2	0	0	0	0	510	509	0	499	38	46	
3	0	0	0	0	511	508	0	500	38	47	
4	0	0	0	0	511	508	0	495	38	48	
5	0	0	0	0	513	510	0	497	38	47	
6	0	0	0	0	512	508	0	512	38	45	
7	0	0	0	0	507	507	0	513	38	43	
8	0	0	0	0	510	506	0	508	38	43	
9	0	0	0	0	508	505	0	508	38	44	
10	0	0	0	0	509	506	0	497	38	46	
11	0	0	0	0	509	506	0	496	38	47	
12	0	0	0	0	511	507	0	499	38	48	
13	0	0	0	0	511	508	0	513	38	47	
14	0	0	0	0	510	507	0	524	38	46	
15	0	0	0	0	509	508	0	524	38	44	
0	0	0	0	0	507	508	0	518	38	43	
1	0	0	0	0	507	508	0	517	38	43	
2	0	0	0	0	508	507	0	518	38	45	
3	0	0	0	0	509	508	0	507	38	47	
4	0	0	0	0	507	508	0	489	38	48	
5	0	0	0	0	508	510	0	486	38	48	
6	0	0	0	0	508	510	0	483	38	46	
7	0	0	0	0	509	510	0	477	38	44	
8	0	0	0	0	508	510	0	471	38	43	
9	0	0	0	0	506	511	0	460	38	43	
10	0	0	0	0	510	510	0	464	38	45	
11	0	0	0	0	512	509	0	478	38	46	
12	0	0	0	0	512	508	0	494	38	47	
13	0	0	0	0	513	508	0	499	38	48	
14	0	0	0	0	510	509	0	492	38	47	
15	0	0	0	0	509	510	0	491	38	45	
0	0	0	0	0	510	511	0	482	38	43	
1	0	0	0	0	506	512	0	459	38	43	
2	0	0	0	0	509	511	0	437	38	44	
3	0	0	0	0	507	511	0	425	38	46	
4	0	0	0	0	509	511	0	435	38	47	
5	0	0	0	0	510	510	0	444	38	48	
6	0	0	0	0	508	508	0	460	38	47	
7	0	0	0	0	507	508	0	476	38	46	
8	0	0	0	0	509	507	0	475	38	44	
9	0	0	0	0	509	505	0	480	38	43	
10	0	0	0	0	510	507	0	495	38	44	
11	0	0	0	0	507	508	0	478	38	45	
12	0	0	0	0	505	507	0	465	38	47	
13	0	0	0	0	506	507	0	453	38	48	
14	0	0	0	0	508	505	0	446	38	48	
15	0	0	0	0	506	503	0	447	38	46	
0	0	0	0	0	509	503	0	453	38	44	
1	0	0	0	0	513	504	0	462	38	43	
2	0	0	0	0	514	506	0	467	38	43	
3	0	0	0	0	514	506	0	475	38	45	
4	0	0	0	0	511	507	0	487	38	46	
5	0	0	0	0	509	508	0	507	38	47	
6	0	0	0	0	507	509	0	533	38	48	
7	0	0	0	0	508	508	0	544	38	47	
8	0	0	0	0	508	509	0	554	38	45	
9	0	0	0	0	508	507	0	560	38	43	
10	0	0	0	0	510	506	0	543	38	43	
11	0	0	0	0	511	506	0	522	38	44	
12	0	0	0	0	509	505	0	490	38	46	
13	0	0	0	0	509	505	0	483	38	47	
14	0	0	0	0	509	504	0	479	38	48	
15	0	0	0	0	508	506	0	464	38	47	
0	0	0	0	0	508	506	0	464	38	45	
1	0	0	0	0	508	506	0	463	38	43	
2	0	0	0	0	511	508	0	476	38	43	
3	0	0	0	0	510	507	0	485	38	44	
4	0	0	0	0	509	508	0	494	38	45	
5	0	0	0	0	508	510	0	488	38	47	
6	0	0	0	0	509	509	0	471	38	48	
7	0	0	0	0	508	509	0	470	38	48	
8	0	0	0	0	509	510	0	474	38	46	
9	0	0	0	0	510	511	0	482	38	44	
10	0	0	0	0	509	510	0	491	38	43	
11	0	0	0	0	510	509	0	508	38	43	
12	0	0	0	0	510	509	0	534	38	45	
13	0	0	0	0	509	509	0	542	38	46	
14	0	0	0	0	508	508	0	546	38	47	
15	0	0	0	0	510	509	0	520	38	48	
0	0	0	0	0	511	510	0	502	38	47	
1	0	0	0	0	511	512	0	503	38	45	
2	0	0	0	0	510	511	0	508	38	43	
3	0	0	0	0	509	511	0	511	38	43	
4	0	0	0	0	509	512	0	523	38	44	
5	0	0	0	0	508	511	0	521	38	46	
6	0	0	0	0	509	509	0	520	38	47	
7	0	0	0	0	507	507	0	513	38	48	
8	0	0	0	0	507	508	0	510	38	47	
9	0	0	0	0	508	508	0	506	38	45	
10	0	0	0	0	508	510	0	496	38	43	
11	0	0	0	0	509	508	0	504	38	43	
12	0	0	0	0	508	507	0	515	38	44	
13	0	0	0	0	510	508	0	524	38	45	
14	0	0	0	0	508	508	0	513	38	47	
15	0	0	0	0	509	507	0	487	38	48	
0	0	0	0	0	509	508	0	468	38	47	
1	0	0	0	0	509	507	0	451	38	46	
2	0	0	0	0	509	506	0	441	38	44	
3	0	0	0	0	509	506	0	422	38	43	
4	0	0	0	0	512	506	0	419	38	43	
5	0	0	0	0	509	506	0	434	38	45	
6	0	0	0	0	509	506	0	459	38	46	
7	0	0	0	0	508	506	0	471	38	47	
8	0	0	0	0	508	507	0	492	38	48	
9	0	0	0	0	509	508	0	502	38	47	
10	0	0	0	0	508	508	0	512	38	45	
11	0	0	0	0	510	508	0	530	38	43	
12	0	0	0	0	510	508	0	552	38	43	
13	0	0	0	0	510	506	0	544	38	44	
14	0	0	0	0	508	505	0	546	38	46	
15	0	0	0	0	509	505	0	560	38	47	
0	0	0	0	0	508	505	0	563	38	48	
1	0	0	0	0	511	505	0	553	38	47	
2	0	0	0	0	507	505	0	542	38	45	
3	0	0	0	0	507	505	0	530	38	43	
4	0	0	0	0	507	505	0	512	38	43	
5	0	0	0	0	509	507	0	493	38	44	
6	0	0	0	0	508	506	0	478	38	46	
7	0	0	0	0	506	505	0	470	38	47	
8	0	0	0	0	508	505	0	460	38	48	
9	0	0	0	0	511	506	0	461	38	47	
10	0	0	0	0	512	505	0	472	38	46	
11	0	0	0	0	511	507	0	479	38	44	
12	0	0	0	0	509	505	0	462	38	43	
13	0	0	0	0	510	506	0	449	38	43	
14	0	0	0	0	510	505	0	459	38	45	
15	0	0	0	0	512	506	0	471	38	46	
0	0	0	0	0	509	507	0	484	38	48	
1	0	0	0	0	508	507	0	495	38	48	
2	0	0	0	0	508	508	0	498	38	46	
3	0	0	0	0	508	510	0	514	38	44	
4	0	0	0	0	509	511	0	524	38	43	
5	0	0	0	0	508	511	0	545	38	43	
6	0	0	0	0	508	512	0	525	38	45	
7	0	0	0	0	510	513	0	510	38	46	
8	0	0	0	0	508	511	0	515	38	47	
9	0	0	0	0	508	509	0	527	38	48	
10	0	0	0	0	506	509	0	535	38	47	
11	0	0	0	0	508	509	0	542	38	45	
12	0	0	0	0	509	508	0	556	38	43	
13	0	0	0	0	510	508	0	545	38	43	
14	0	0	0	0	511	508	0	537	38	44	
15	0	0	0	0	510	508	0	526	38	46	
0	0	0	0	0	510	508	0	537	38	47	
1	0	0	0	0	508	508	0	551	38	48	
2	0	0	0	0	510	509	0	552	38	47	
3	0	0	0	0	508	508	0	555	38	46	
4	0	0	0	0	508	507	0	556	38	44	
5	0	0	0	0	508	506	0	546	38	43	
6	0	0	0	0	507	505	0	532	38	43	
7	0	0	0	0	509	504	0	528	38	45	
8	0	0	0	0	510	506	0	519	38	47	
9	0	0	0	0	511	505	0	504	38	48	
10	0	0	0	0	511	507	0	495	38	48	
11	0	0	0	0	510	508	0	494	38	46	
12	0	0	0	0	511	509	0	498	38	44	
13	0	0	0	0	508	510	0	508	38	43	
14	0	0	0	0	509	510	0	508	38	43	
15	0	0	0	0	510	511	0	501	38	45	
0	0	0	0	0	511	511	0	494	38	46	
1	0	0	0	0	509	511	0	507	38	47	
2	0	0	0	0	508	510	0	510	38	48	
3	0	0	0	0	508	511	0	495	38	47	
4	0	0	0	0	508	512	0	467	38	45	
5	0	0	0	0	510	511	0	443	38	43	
6	0	0	0	0	508	510	0	450	38	43	
7	0	0	0	0	508	509	0	476	38	44	
8	0	0	0	0	509	507	0	493	38	46	
9	0	0	0	0	510	507	0	496	38	47	
10	0	0	0	0	509	508	0	502	38	48	
11	0	0	0	0	508	507	0	492	38	47	
12	0	0	0	0	508	507	0	500	38	46	
13	0	0	0	0	508	507	0	513	38	44	
14	0	0	0	0	510	506	0	525	38	43	
15	0	0	0	0	510	505	0	524	38	44	
0	0	0	0	0	511	505	0	514	38	45	
1	0	0	0	0	510	507	0	510	38	47	
2	0	0	0	0	508	508	0	513	38	48	
3	0	0	0	0	510	509	0	512	38	48	
4	0	0	0	0	508	507	0	501	38	46	
5	0	0	0	0	509	508	0	501	38	44	
6	0	0	0	0	509	509	0	495	38	43	
7	0	0	0	0	510	509	0	489	38	43	
8	0	0	0	0	510	508	0	485	38	45	
9	0	0	0	0	511	508	0	481	38	46	
10	0	0	0	0	509	509	0	497	38	47	
11	0	0	0	0	508	510	0	511	38	48	
12	0	0	0	0	509	509	0	512	38	47	
13	0	0	0	0	510	509	0	511	38	45	
14	0	0	0	0	508	511	0	508	38	43	
15	0	0	0	0	509	509	0	516	38	43	
0	0	0	0	0	511	508	0	518	38	44	
1	0	0	0	0	512	509	0	523	38	46	
2	0	0	0	0	508	510	0	537	38	47	
3	0	0	0	0	510	508	0	550	38	48	
4	0	0	0	0	508	508	0	571	38	47	
5	0	0	0	0	508	508	0	593	38	46	
6	0	0	0	0	507	510	0	587	38	44	
7	0	0	0	0	505	509	0	564	38	43	
8	0	0	0	0	505	510	0	534	38	44	
9	0	0	0	0	510	510	0	529	38	45	
10	0	0	0	0	509	508	0	539	38	47	
11	0	0	0	0	509	508	0	548	38	48	
12	0	0	0	0	509	508	0	560	38	48	
13	0	0	0	0	512	507	0	566	38	46	
14	0	0	0	0	511	505	0	566	38	44	
15	0	0	0	0	511	508	0	558	38	43	
0	0	0	0	0	512	509	0	545	38	43	
1	0	0	0	0	509	510	0	519	38	45	
2	0	0	0	0	508	510	0	490	38	46	
3	0	0	0	0	507	509	0	484	38	47	
4	0	0	0	0	508	509	0	494	38	48	
5	0	0	0	0	508	509	0	500	38	47	
6	0	0	0	0	507	507	0	483	38	45	
7	0	0	0	0	509	507	0	476	38	43	
8	0	0	0	0	508	507	0	498	38	43	
9	0	0	0	0	509	505	0	496	38	44	
10	0	0	0	0	509	506	0	499	38	46	
11	0	0	0	0	509	507	0	477	38	47	
12	0	0	0	0	508	507	0	449	38	48	
13	0	0	0	0	508	508	0	451	38	47	
14	0	0	0	0	509	510	0	473	38	45	
15	0	0	0	0	508	509	0	497	38	43	
0	0	0	0	0	508	507	0	512	38	43	
1	0	0	0	0	510	507	0	514	38	44	
2	0	0	0	0	509	507	0	527	38	45	
3	0	0	0	0	512	507	0	529	38	47	
4	0	0	0	0	510	507	0	523	38	48	
5	0	0	0	0	508	508	0	505	38	48	
6	0	0	0	0	508	507	0	477	38	46	
7	0	0	0	0	510	507	0	457	38	44	
8	0	0	0	0	509	507	0	447	38	43	
9	0	0	0	0	509	505	0	442	38	43	
10	0	0	0	0	509	507	0	431	38	45	
11	0	0	0	0	508	508	0	423	38	46	
12	0	0	0	0	508	509	0	426	38	47	
13	0	0	0	0	508	508	0	451	38	48	
14	0	0	0	0	509	509	0	479	38	47	
15	0	0	0	0	510	508	0	514	38	45	
0	0	0	0	0	509	507	0	539	38	43	
1	0	0	0	0	510	507	0	552	38	43	
2	0	0	0	0	508	507	0	558	38	44	
3	0	0	0	0	507	507	0	557	38	46	
4	0	0	0	0	510	507	0	551	38	47	
5	0	0	0	0	510	507	0	540	38	48	
6	0	0	0	0	508	506	0	541	38	47	
7	0	0	0	0	508	508	0	544	38	45	
8	0	0	0	0	509	507	0	550	38	43	
9	0	0	0	0	511	507	0	548	38	43	
10	0	0	0	0	508	508	0	540	38	44	
11	0	0	0	0	511	509	0	548	38	45	
12	0	0	0	0	509	510	0	554	38	47	
13	0	0	0	0	510	511	0	542	38	48	
14	0	0	0	0	509	510	0	525	38	48	
15	0	0	0	0	508	510	0	512	38	46	
0	0	0	0	0	510	509	0	515	38	44	
1	0	0	0	0	510	508	0	509	38	43	
2	0	0	0	0	509	509	0	482	38	43	
3	0	0	0	0	507	509	0	468	38	45	
4	0	0	0	0	509	509	0	470	38	46	
5	0	0	0	0	508	510	0	467	38	47	
6	0	0	0	0	508	510	0	471	38	48	
7	0	0	0	0	509	510	0	466	38	47	
8	0	0	0	0	511	509	0	472	38	45	
9	0	0	0	0	510	508	0	492	38	43	
10	0	0	0	0	508	509	0	516	38	43	
11	0	0	0	0	509	508	0	535	38	44	
12	0	0	0	0	509	510	0	545	38	46	
13	0	0	0	0	507	510	0	559	38	47	
14	0	0	0	0	508	510	0	549	38	48	
15	0	0	0	0	508	508	0	530	38	47	
0	0	0	0	0	508	507	0	511	38	45	
1	0	0	0	0	513	507	0	496	38	43	
2	0	0	0	0	510	505	0	494	38	43	
3	0	0	0	0	509	505	0	501	38	44	
4	0	0	0	0	511	506	0	520	38	46	
5	0	0	0	0	509	506	0	531	38	47	
6	0	0	0	0	511	507	0	544	38	48	
7	0	0	0	0	508	506	0	556	38	48	
8	0	0	0	0	512	505	0	553	38	46	
9	0	0	0	0	511	507	0	556	38	44	
10	0	0	0	0	509	507	0	559	38	43	
11	0	0	0	0	510	507	0	560	38	43	
12	0	0	0	0	511	508	0	568	38	45	
13	0	0	0	0	511	508	0	565	38	47	
14	0	0	0	0	509	509	0	560	38	48	
15	0	0	0	0	507	510	0	551	38	48	
0	0	0	0	0	507	510	0	542	38	47	
1	0	0	0	0	509	512	0	539	38	45	
2	0	0	0	0	507	510	0	538	38	43	
3	0	0	0	0	507	508	0	541	38	43	
4	0	0	0	0	508	509	0	539	38	45	
5	0	0	0	0	510	509	0	527	38	46	
6	0	0	0	0	508	508	0	504	38	47	
7	0	0	0	0	508	509	0	480	38	48	
8	0	0	0	0	510	508	0	482	38	47	
9	0	0	0	0	512	508	0	490	38	45	
10	0	0	0	0	509	508	0	489	38	43	
11	0	0	0	0	510	509	0	489	38	43	
12	0	0	0	0	507	510	0	480	38	44	
13	0	0	0	0	508	510	0	483	38	46	
14	0	0	0	0	508	510	0	492	38	47	
15	0	0	0	0	506	509	0	496	38	48	
0	0	0	0	0	509	509	0	490	38	48	
1	0	0	0	0	508	507	0	487	38	46	
2	0	0	0	0	510	508	0	492	38	44	
3	0	0	0	0	509	507	0	498	38	43	
4	0	0	0	0	509	508	0	496	38	44	
5	0	0	0	0	511	509	0	482	38	45	
6	0	0	0	0	511	509	0	462	38	47	
7	0	0	0	0	508	508	0	457	38	48	
8	0	0	0	0	508	508	0	470	38	48	
9	0	0	0	0	511	507	0	481	38	47	
10	0	0	0	0	510	508	0	499	38	45	
11	0	0	0	0	511	509	0	511	38	43	
12	0	0	0	0	509	510	0	519	38	43	
13	0	0	0	0	510	509	0	528	38	45	
14	0	0	0	0	510	508	0	516	38	47	
15	0	0	0	0	509	508	0	493	38	48	
0	0	0	0	0	509	509	0	479	38	48	
1	0	0	0	0	509	510	0	484	38	47	
2	0	0	0	0	510	510	0	500	38	45	
3	0	0	0	0	509	510	0	502	38	44	
4	0	0	0	0	507	509	0	478	38	43	
5	0	0	0	0	509	508	0	454	38	45	
6	0	0	0	0	508	508	0	454	38	46	
7	0	0	0	0	509	508	0	456	38	47	
8	0	0	0	0	508	507	0	467	38	48	
9	0	0	0	0	508	505	0	472	38	48	
10	0	0	0	0	507	505	0	465	38	46	
11	0	0	0	0	508	506	0	460	38	44	
12	0	0	0	0	508	507	0	482	38	43	
13	0	0	0	0	510	506	0	503	38	44	
14	0	0	0	0	511	507	0	500	38	46	
15	0	0	0	0	512	507	0	491	38	47	
0	0	0	0	0	509	508	0	498	38	48	
1	0	0	0	0	509	508	0	507	38	48	
2	0	0	0	0	510	509	0	514	38	47	
3	0	0	0	0	511	509	0	514	38	45	
4	0	0	0	0	509	508	0	520	38	44	
5	0	0	0	0	508	506	0	531	38	44	
6	0	0	0	0	508	506	0	531	38	45	
7	0	0	0	0	509	506	0	519	38	47	
8	0	0	0	0	508	504	0	504	38	48	
9	0	0	0	0	508	506	0	503	38	49	
10	0	0	0	0	511	507	0	508	38	48	
11	0	0	0	0	510	506	0	519	38	46	
12	0	0	0	0	510	506	0	540	38	44	
13	0	0	0	0	509	506	0	539	38	44	
14	0	0	0	0	508	506	0	530	38	45	
15	0	0	0	0	508	506	0	534	38	47	
0	0	0	0	0	509	508	0	533	38	48	
1	0	0	0	0	507	508	0	530	38	49	
2	0	0	0	0	503	508	0	515	38	48	
3	0	0	0	0	504	509	0	490	38	47	
4	0	0	0	0	502	509	0	483	38	45	
5	0	0	0	0	507	508	0	483	38	44	
6	0	0	0	0	514	507	0	492	38	45	
7	0	0	0	0	518	508	0	487	38	46	
8	0	0	0	0	520	507	0	474	38	48	
9	0	0	0	0	515	508	0	472	38	49	
10	0	0	0	0	510	508	0	483	38	49	
11	0	0	0	0	509	508	0	487	38	47	
12	0	0	0	0	506	508	0	478	38	45	
13	0	0	0	0	507	509	0	474	38	44	
14	0	0	0	0	508	509	0	476	38	44	
15	0	0	0	0	508	508	0	485	38	46	
0	0	0	0	0	508	508	0	478	38	48	
1	0	0	0	0	509	506	0	475	38	49	
2	0	0	0	0	511	506	0	475	38	49	
3	0	0	0	0	510	504	0	490	38	48	
4	0	0	0	0	511	504	0	499	38	46	
5	0	0	0	0	509	505	0	495	38	44	
6	0	0	0	0	510	506	0	494	38	44	
7	0	0	0	0	507	507	0	497	38	46	
8	0	0	0	0	508	506	0	502	38	47	
9	0	0	0	0	508	507	0	508	38	48	
10	0	0	0	0	508	507	0	528	38	49	
11	0	0	0	0	509	506	0	544	38	49	
12	0	0	0	0	510	505	0	543	38	47	
13	0	0	0	0	508	507	0	547	38	45	
14	0	0	0	0	509	506	0	562	38	44	
15	0	0	0	0	510	508	0	579	38	45	
0	0	0	0	0	509	508	0	591	38	47	
1	0	0	0	0	509	506	0	591	38	48	
2	0	0	0	0	509	505	0	585	38	49	
3	0	0	0	0	508	505	0	585	38	49	
4	0	0	0	0	504	505	0	589	38	48	
5	0	0	0	0	508	504	0	580	38	46	
6	0	0	0	0	508	504	0	558	38	45	
7	0	0	0	0	512	503	0	550	38	45	
8	0	0	0	0	510	504	0	556	38	47	
9	0	0	0	0	510	505	0	561	38	48	
10	0	0	0	0	509	504	0	553	38	49	
11	0	0	0	0	512	504	0	542	38	49	
12	0	0	0	0	510	504	0	543	38	48	
13	0	0	0	0	509	504	0	548	38	47	
14	0	0	0	0	510	506	0	531	38	45	
15	0	0	0	0	508	508	0	528	38	45	
0	0	0	0	0	508	509	0	519	38	46	
1	0	0	0	0	508	508	0	536	38	48	
2	0	0	0	0	512	510	0	545	38	49	
3	0	0	0	0	507	510	0	529	38	50	
4	0	0	0	0	510	510	0	525	38	49	
5	0	0	0	0	510	508	0	515	38	47	
6	0	0	0	0	510	509	0	504	38	45	
7	0	0	0	0	510	508	0	489	38	45	
8	0	0	0	0	508	508	0	480	38	46	
9	0	0	0	0	509	509	0	484	38	47	
10	0	0	0	0	509	510	0	475	38	49	
11	0	0	0	0	509	511	0	483	38	50	
12	0	0	0	0	509	509	0	507	38	50	
13	0	0	0	0	510	509	0	521	38	48	
14	0	0	0	0	508	508	0	527	38	46	
15	0	0	0	0	510	506	0	520	38	45	
0	0	0	0	0	507	507	0	519	38	46	
1	0	0	0	0	508	508	0	513	38	47	
2	0	0	0	0	509	508	0	508	38	49	
3	0	0	0	0	513	508	0	511	38	50	
4	0	0	0	0	511	509	0	506	38	50	
5	0	0	0	0	509	509	0	510	38	49	
6	0	0	0	0	509	510	0	511	38	47	
7	0	0	0	0	511	510	0	509	38	45	
8	0	0	0	0	509	508	0	496	38	45	
9	0	0	0	0	509	509	0	481	38	47	
10	0	0	0	0	508	512	0	486	38	48	
11	0	0	0	0	508	512	0	496	38	50	
12	0	0	0	0	508	511	0	513	38	50	
13	0	0	0	0	508	509	0	518	38	49	
14	0	0	0	0	510	508	0	529	38	48	
15	0	0	0	0	507	507	0	514	38	46	
0	0	0	0	0	509	507	0	500	38	45	
1	0	0	0	0	510	508	0	500	38	46	
2	0	0	0	0	510	508	0	497	38	48	
3	0	0	0	0	511	508	0	488	38	49	
4	0	0	0	0	508	508	0	485	38	50	
5	0	0	0	0	509	508	0	485	38	50	
6	0	0	0	0	510	508	0	495	38	49	
7	0	0	0	0	508	506	0	497	38	47	
8	0	0	0	0	509	505	0	505	38	45	
9	0	0	0	0	510	504	0	502	38	46	
10	0	0	0	0	510	503	0	492	38	48	
11	0	0	0	0	507	504	0	489	38	49	
12	0	0	0	0	510	507	0	484	38	50	
13	0	0	0	0	511	507	0	483	38	50	
14	0	0	0	0	510	506	0	491	38	49	
15	0	0	0	0	509	506	0	486	38	47	
0	0	0	0	0	508	504	0	472	38	46	
1	0	0	0	0	508	504	0	450	38	46	
2	0	0	0	0	509	504	0	433	38	47	
3	0	0	0	0	509	504	0	435	38	49	
4	0	0	0	0	509	505	0	446	38	50	
5	0	0	0	0	508	506	0	452	38	51	
6	0	0	0	0	510	506	0	452	38	50	
7	0	0	0	0	508	506	0	446	38	48	
8	0	0	0	0	510	507	0	455	38	46	
9	0	0	0	0	510	508	0	469	38	46	
10	0	0	0	0	509	508	0	493	38	47	
11	0	0	0	0	509	508	0	511	38	48	
12	0	0	0	0	508	508	0	502	38	50	
13	0	0	0	0	508	509	0	481	38	51	
14	0	0	0	0	510	507	0	470	38	50	
15	0	0	0	0	511	506	0	469	38	49	
0	0	0	0	0	510	507	0	475	38	47	
1	0	0	0	0	511	508	0	479	38	46	
2	0	0	0	0	508	508	0	481	38	47	
3	0	0	0	0	509	507	0	488	38	48	
4	0	0	0	0	509	507	0	509	38	50	
5	0	0	0	0	509	506	0	519	38	51	
6	0	0	0	0	508	507	0	502	38	51	
7	0	0	0	0	506	508	0	483	38	50	
8	0	0	0	0	507	509	0	484	38	48	
9	0	0	0	0	508	509	0	497	38	46	
10	0	0	0	0	511	511	0	501	38	46	
11	0	0	0	0	510	510	0	493	38	48	
12	0	0	0	0	511	509	0	487	38	49	
13	0	0	0	0	511	510	0	492	38	50	
14	0	0	0	0	508	510	0	504	38	51	
15	0	0	0	0	510	509	0	530	38	50	
0	0	0	0	0	510	509	0	514	38	48	
1	0	0	0	0	511	508	0	508	38	47	
2	0	0	0	0	510	508	0	505	38	46	
3	0	0	0	0	507	508	0	495	38	47	
4	0	0	0	0	509	509	0	486	38	49	
5	0	0	0	0	509	510	0	473	38	50	
6	0	0	0	0	508	511	0	485	38	51	
7	0	0	0	0	509	509	0	485	38	51	
8	0	0	0	0	508	508	0	480	38	49	
9	0	0	0	0	508	509	0	454	38	47	
10	0	0	0	0	506	507	0	428	38	46	
11	0	0	0	0	507	505	0	423	38	47	
12	0	0	0	0	509	505	0	422	38	49	
13	0	0	0	0	511	505	0	444	38	50	
14	0	0	0	0	510	505	0	454	38	51	
15	0	0	0	0	510	505	0	476	38	51	
0	0	0	0	0	510	504	0	503	38	50	
1	0	0	0	0	508	505	0	528	38	48	
2	0	0	0	0	509	506	0	537	38	47	
3	0	0	0	0	509	507	0	542	38	47	
4	0	0	0	0	510	508	0	555	38	48	
5	0	0	0	0	508	510	0	562	38	50	
6	0	0	0	0	508	512	0	566	38	51	
7	0	0	0	0	507	511	0	563	38	51	
8	0	0	0	0	505	511	0	557	38	51	
9	0	0	0	0	504	510	0	544	38	49	
10	0	0	0	0	509	510	0	532	38	47	
11	0	0	0	0	514	510	0	539	38	47	
12	0	0	0	0	521	511	0	531	38	48	
13	0	0	0	0	522	510	0	527	38	50	
14	0	0	0	0	515	508	0	539	38	51	
15	0	0	0	0	502	508	0	568	38	52	
0	0	0	0	0	504	509	0	576	38	51	
1	0	0	0	0	505	510	0	577	38	50	
2	0	0	0	0	510	510	0	565	38	48	
3	0	0	0	0	508	510	0	545	38	47	
4	0	0	0	0	508	508	0	524	38	48	
5	0	0	0	0	509	508	0	506	38	49	
6	0	0	0	0	508	509	0	496	38	51	
7	0	0	0	0	507	509	0	495	38	51	
8	0	0	0	0	508	509	0	504	38	52	
9	0	0	0	0	508	509	0	526	38	50	
10	0	0	0	0	511	508	0	527	38	48	
11	0	0	0	0	510	507	0	512	38	47	
12	0	0	0	0	511	507	0	492	38	47	
13	0	0	0	0	510	507	0	475	38	49	
14	0	0	0	0	510	507	0	464	38	50	
15	0	0	0	0	511	507	0	463	38	51	
0	0	0	0	0	511	507	0	473	38	52	
1	0	0	0	0	510	508	0	473	38	51	
2	0	0	0	0	509	508	0	473	38	49	
3	0	0	0	0	508	508	0	484	38	47	
4	0	0	0	0	510	508	0	496	38	47	
5	0	0	0	0	511	508	0	507	38	48	
6	0	0	0	0	509	506	0	505	38	50	
7	0	0	0	0	509	506	0	496	38	51	
8	0	0	0	0	508	507	0	490	38	52	
9	0	0	0	0	510	508	0	478	38	51	
10	0	0	0	0	509	508	0	470	38	50	
11	0	0	0	0	508	506	0	467	38	48	
12	0	0	0	0	509	507	0	472	38	47	
13	0	0	0	0	508	507	0	489	38	48	
14	0	0	0	0	512	507	0	505	38	49	
15	0	0	0	0	511	506	0	499	38	51	
0	0	0	0	0	510	506	0	488	38	52	
1	0	0	0	0	507	506	0	476	38	52	
2	0	0	0	0	507	507	0	472	38	50	
3	0	0	0	0	510	508	0	486	38	48	
4	0	0	0	0	509	507	0	513	38	47	
5	0	0	0	0	510	508	0	515	38	48	
6	0	0	0	0	509	508	0	507	38	49	
7	0	0	0	0	509	506	0	525	38	51	
8	0	0	0	0	509	507	0	547	38	52	
9	0	0	0	0	508	507	0	554	38	52	
10	0	0	0	0	507	508	0	537	38	51	
11	0	0	0	0	508	509	0	519	38	49	
12	0	0	0	0	509	508	0	507	38	47	
13	0	0	0	0	507	507	0	499	38	47	
14	0	0	0	0	504	508	0	501	38	49	
15	0	0	0	0	508	508	0	494	38	50	
0	0	0	0	0	512	508	0	478	38	51	
1	0	0	0	0	509	505	0	478	38	52	
2	0	0	0	0	512	507	0	489	38	51	
3	0	0	0	0	511	507	0	498	38	50	
4	0	0	0	0	511	508	0	499	38	48	
5	0	0	0	0	512	508	0	491	38	47	
6	0	0	0	0	509	508	0	488	38	48	
7	0	0	0	0	508	508	0	478	38	50	
8	0	0	0	0	507	509	0	478	38	51	
9	0	0	0	0	508	508	0	483	38	52	
10	0	0	0	0	508	506	0	486	38	52	
11	0	0	0	0	509	507	0	495	38	51	
12	0	0	0	0	509	508	0	509	38	49	
13	0	0	0	0	509	509	0	517	38	48	
14	0	0	0	0	509	509	0	505	38	48	
15	0	0	0	0	509	508	0	497	38	49	
0	0	0	0	0	510	508	0	511	38	51	
1	0	0	0	0	510	509	0	520	38	52	
2	0	0	0	0	507	507	0	523	38	52	
3	0	0	0	0	508	507	0	494	38	51	
4	0	0	0	0	510	507	0	480	38	49	
5	0	0	0	0	508	508	0	492	38	48	
6	0	0	0	0	508	508	0	515	38	48	
7	0	0	0	0	508	509	0	509	38	49	
8	0	0	0	0	508	508	0	492	38	51	
9	0	0	0	0	508	507	0	478	38	52	
10	0	0	0	0	510	507	0	481	38	53	
11	0	0	0	0	509	506	0	488	38	52	
12	0	0	0	0	509	507	0	497	38	50	
13	0	0	0	0	507	507	0	520	38	48	
14	0	0	0	0	508	506	0	535	38	48	
15	0	0	0	0	510	507	0	541	38	49	
0	0	0	0	0	508	509	0	556	38	50	
1	0	0	0	0	509	509	0	575	38	52	
2	0	0	0	0	512	508	0	596	38	53	
3	0	0	0	0	511	508	0	614	38	52	
4	0	0	0	0	510	506	0	623	38	51	
5	0	0	0	0	508	506	0	618	38	49	
6	0	0	0	0	510	505	0	603	38	48	
7	0	0	0	0	509	505	0	590	38	49	
8	0	0	0	0	511	507	0	588	38	50	
9	0	0	0	0	512	507	0	594	38	52	
10	0	0	0	0	508	508	0	599	38	53	
11	0	0	0	0	509	510	0	601	38	53	
12	0	0	0	0	510	512	0	602	38	52	
13	0	0	0	0	507	510	0	600	38	50	
14	0	0	0	0	510	511	0	608	38	49	
15	0	0	0	0	510	510	0	608	38	49	
0	0	0	0	0	508	510	0	605	38	50	
1	0	0	0	0	508	508	0	587	38	52	
2	0	0	0	0	510	508	0	574	38	53	
3	0	0	0	0	509	508	0	571	38	53	
4	0	0	0	0	508	508	0	577	38	53	
5	0	0	0	0	509	507	0	548	38	51	
6	0	0	0	0	507	504	0	529	38	49	
7	0	0	0	0	508	503	0	507	38	49	
8	0	0	0	0	510	505	0	494	38	50	
9	0	0	0	0	510	507	0	487	38	52	
10	0	0	0	0	509	506	0	488	38	53	
11	0	0	0	0	507	506	0	486	38	54	
12	0	0	0	0	507	506	0	478	38	54	
13	0	0	0	0	506	504	0	481	38	52	
14	0	0	0	0	509	507	0	500	38	51	
15	0	0	0	0	511	508	0	523	38	50	
0	0	0	0	0	515	508	0	533	38	50	
1	0	0	0	0	513	508	0	529	38	52	
2	0	0	0	0	509	510	0	523	38	53	
3	0	0	0	0	507	509	0	528	38	54	
4	0	0	0	0	509	511	0	540	38	55	
5	0	0	0	0	511	509	0	531	38	54	
6	0	0	0	0	511	508	0	511	38	52	
7	0	0	0	0	508	508	0	507	38	50	
8	0	0	0	0	508	507	0	510	38	50	
9	0	0	0	0	507	507	0	529	38	52	
10	0	0	0	0	506	507	0	524	38	53	
11	0	0	0	0	509	508	0	520	38	55	
12	0	0	0	0	510	508	0	528	38	55	
13	0	0	0	0	511	510	0	551	38	54	
14	0	0	0	0	508	510	0	564	38	53	
15	0	0	0	0	508	510	0	563	38	51	
0	0	0	0	0	508	509	0	555	38	51	
1	0	0	0	0	510	509	0	564	38	52	
2	0	0	0	0	509	509	0	576	38	53	
3	0	0	0	0	509	508	0	571	38	55	
4	0	0	0	0	507	508	0	563	38	56	
5	0	0	0	0	507	508	0	556	38	55	
6	0	0	0	0	504	509	0	568	38	54	
7	0	0	0	0	505	512	0	572	38	52	
8	0	0	0	0	507	511	0	554	38	51	
9	0	0	0	0	511	511	0	541	38	52	
10	0	0	0	0	515	509	0	529	38	54	
11	0	0	0	0	519	510	0	518	38	55	
12	0	0	0	0	513	508	0	517	38	56	
13	0	0	0	0	504	508	0	511	38	56	
14	0	0	0	0	504	507	0	504	38	55	
15	0	0	0	0	508	507	0	478	38	53	
0	0	0	0	0	507	507	0	460	38	52	
1	0	0	0	0	509	507	0	461	38	52	
2	0	0	0	0	508	509	0	462	38	54	
3	0	0	0	0	508	508	0	464	38	55	
4	0	0	0	0	510	507	0	465	38	56	
5	0	0	0	0	512	506	0	483	38	57	
6	0	0	0	0	510	508	0	508	38	56	
7	0	0	0	0	507	508	0	515	38	55	
8	0	0	0	0	508	508	0	502	38	53	
9	0	0	0	0	509	509	0	496	38	53	
10	0	0	0	0	509	510	0	502	38	54	
11	0	0	0	0	509	510	0	490	38	55	
12	0	0	0	0	509	508	0	465	38	57	
13	0	0	0	0	508	506	0	448	38	57	
14	0	0	0	0	506	506	0	426	38	57	
15	0	0	0	0	505	505	0	426	38	56	
0	0	0	0	0	511	504	0	426	38	54	
1	0	0	0	0	513	505	0	424	38	53	
2	0	0	0	0	514	506	0	419	38	54	
3	0	0	0	0	514	507	0	422	38	55	
4	0	0	0	0	508	507	0	438	38	57	
5	0	0	0	0	507	506	0	449	38	58	
6	0	0	0	0	506	505	0	457	38	58	
7	0	0	0	0	507	505	0	471	38	57	
8	0	0	0	0	507	507	0	465	38	55	
9	0	0	0	0	508	505	0	472	38	54	
10	0	0	0	0	509	507	0	483	38	54	
11	0	0	0	0	508	505	0	486	38	55	
12	0	0	0	0	509	505	0	478	38	57	
13	0	0	0	0	510	505	0	468	38	58	
14	0	0	0	0	509	503	0	467	38	58	
15	0	0	0	0	509	504	0	470	38	57	
0	0	0	0	0	508	504	0	474	38	56	
1	0	0	0	0	508	507	0	485	38	54	
2	0	0	0	0	508	507	0	493	38	54	
3	0	0	0	0	510	508	0	494	38	55	
4	0	0	0	0	510	509	0	490	38	57	
5	0	0	0	0	509	508	0	490	38	58	
6	0	0	0	0	509	507	0	509	38	59	
7	0	0	0	0	510	508	0	531	38	58	
8	0	0	0	0	510	507	0	540	38	57	
9	0	0	0	0	508	507	0	534	38	55	
10	0	0	0	0	512	505	0	524	38	55	
11	0	0	0	0	512	507	0	517	38	55	
12	0	0	0	0	510	508	0	512	38	57	
13	0	0	0	0	506	509	0	512	38	58	
14	0	0	0	0	505	510	0	518	38	59	
15	0	0	0	0	503	510	0	516	38	59	
0	0	0	0	0	507	510	0	501	38	58	
1	0	0	0	0	510	509	0	494	38	56	
2	0	0	0	0	514	509	0	495	38	55	
3	0	0	0	0	516	506	0	484	38	55	
4	0	0	0	0	509	506	0	474	38	57	
5	0	0	0	0	508	506	0	473	38	58	
6	0	0	0	0	506	507	0	480	38	59	
7	0	0	0	0	507	506	0	496	38	59	
8	0	0	0	0	510	506	0	520	38	59	
9	0	0	0	0	510	505	0	540	38	57	
10	0	0	0	0	508	507	0	536	38	56	
11	0	0	0	0	507	508	0	523	38	56	
12	0	0	0	0	507	506	0	510	38	57	
13	0	0	0	0	508	505	0	504	38	58	
14	0	0	0	0	508	505	0	505	38	59	
15	0	0	0	0	508	505	0	488	38	59	
0	0	0	0	0	507	505	0	476	38	59	
1	0	0	0	0	509	504	0	471	38	58	
2	0	0	0	0	510	504	0	471	38	57	
3	0	0	0	0	508	503	0	491	38	56	
4	0	0	0	0	509	505	0	517	38	57	
5	0	0	0	0	511	506	0	536	38	58	
6	0	0	0	0	510	506	0	549	38	59	
7	0	0	0	0	509	507	0	543	38	59	
8	0	0	0	0	511	507	0	527	38	59	
9	0	0	0	0	510	505	0	507	38	59	
10	0	0	0	0	506	504	0	473	38	58	
11	0	0	0	0	508	506	0	456	38	56	
12	0	0	0	0	507	507	0	455	38	57	
13	0	0	0	0	509	506	0	458	38	58	
14	0	0	0	0	507	507	0	461	38	59	
15	0	0	0	0	507	507	0	454	38	59	
0	0	0	0	0	508	506	0	472	38	60	
1	0	0	0	0	508	505	0	507	38	59	
2	0	0	0	0	510	507	0	533	38	58	
3	0	0	0	0	508	509	0	548	38	57	
4	0	0	0	0	510	510	0	540	38	57	
5	0	0	0	0	513	509	0	526	38	58	
6	0	0	0	0	513	508	0	516	38	59	
7	0	0	0	0	514	510	0	519	38	59	
8	0	0	0	0	511	509	0	526	38	60	
9	0	0	0	0	511	509	0	537	38	59	
10	0	0	0	0	508	510	0	544	38	59	
11	0	0	0	0	510	511	0	545	38	58	
12	0	0	0	0	508	512	0	534	38	57	
13	0	0	0	0	510	511	0	515	38	58	
14	0	0	0	0	510	512	0	489	38	59	
15	0	0	0	0	507	511	0	472	38	60	
0	0	0	0	0	507	509	0	460	38	60	
1	0	0	0	0	508	508	0	446	38	60	
2	0	0	0	0	506	509	0	429	38	59	
3	0	0	0	0	506	509	0	416	38	58	
4	0	0	0	0	511	509	0	407	38	57	
5	0	0	0	0	507	510	0	415	38	58	
6	0	0	0	0	508	510	0	442	38	59	
7	0	0	0	0	507	509	0	457	38	59	
8	0	0	0	0	508	508	0	463	38	60	
9	0	0	0	0	509	508	0	481	38	60	
10	0	0	0	0	508	507	0	503	38	60	
11	0	0	0	0	508	507	0	510	38	59	
12	0	0	0	0	508	507	0	502	38	58	
13	0	0	0	0	507	506	0	487	38	58	
14	0	0	0	0	508	508	0	489	38	59	
15	0	0	0	0	509	507	0	493	38	59	
0	0	0	0	0	509	508	0	491	38	60	
1	0	0	0	0	510	508	0	476	38	60	
2	0	0	0	0	512	508	0	455	38	60	
3	0	0	0	0	515	507	0	446	38	59	
4	0	0	0	0	516	508	0	453	38	58	
5	0	0	0	0	508	508	0	478	38	58	
6	0	0	0	0	504	508	0	473	38	59	
7	0	0	0	0	508	508	0	483	38	59	
8	0	0	0	0	509	508	0	496	38	60	
9	0	0	0	0	508	506	0	497	38	60	
10	0	0	0	0	507	505	0	495	38	60	
11	0	0	0	0	510	505	0	489	38	59	
12	0	0	0	0	509	505	0	492	38	59	
13	0	0	0	0	508	505	0	512	38	58	
14	0	0	0	0	508	505	0	537	38	58	
15	0	0	0	0	508	504	0	551	38	59	
0	0	0	0	0	510	505	0	561	38	60	
1	0	0	0	0	508	505	0	565	38	60	
2	0	0	0	0	505	506	0	565	38	60	
3	0	0	0	0	508	508	0	552	38	60	
4	0	0	0	0	510	507	0	537	38	59	
5	0	0	0	0	515	508	0	516	38	58	
6	0	0	0	0	515	509	0	519	38	58	
7	0	0	0	0	513	509	0	528	38	59	
8	0	0	0	0	509	511	0	540	38	60	
9	0	0	0	0	507	511	0	539	38	60	
10	0	0	0	0	506	509	0	545	38	60	
11	0	0	0	0	510	510	0	568	38	60	
12	0	0	0	0	505	509	0	589	38	59	
13	0	0	0	0	505	508	0	590	38	59	
14	0	0	0	0	505	508	0	588	38	58	
15	0	0	0	0	508	507	0	597	38	59	
0	0	0	0	0	510	507	0	602	38	60	
1	0	0	0	0	512	505	0	608	38	60	
2	0	0	0	0	513	507	0	616	38	60	
3	0	0	0	0	511	507	0	632	38	60	
4	0	0	0	0	504	507	0	627	38	60	
5	0	0	0	0	505	509	0	607	38	59	
6	0	0	0	0	509	509	0	597	38	58	
7	0	0	0	0	506	508	0	606	38	59	
8	0	0	0	0	509	509	0	609	38	59	
9	0	0	0	0	507	510	0	593	38	60	
10	0	0	0	0	507	510	0	567	38	60	
11	0	0	0	0	509	509	0	544	38	60	
12	0	0	0	0	509	509	0	528	38	60	
13	0	0	0	0	510	508	0	523	38	59	
14	0	0	0	0	509	509	0	531	38	59	
15	0	0	0	0	510	509	0	536	38	59	
0	0	0	0	0	508	509	0	547	38	59	
1	0	0	0	0	510	508	0	547	38	60	
2	0	0	0	0	508	507	0	531	38	60	
3	0	0	0	0	509	507	0	523	38	60	
4	0	0	0	0	510	507	0	518	38	60	
5	0	0	0	0	510	507	0	535	38	59	
6	0	0	0	0	508	507	0	554	38	59	
7	0	0	0	0	507	508	0	566	38	58	
8	0	0	0	0	510	508	0	565	38	59	
9	0	0	0	0	509	508	0	551	38	60	
10	0	0	0	0	508	508	0	545	38	60	
11	0	0	0	0	510	507	0	540	38	60	
12	0	0	0	0	509	507	0	527	38	60	
13	0	0	0	0	506	508	0	508	38	60	
14	0	0	0	0	509	509	0	494	38	59	
15	0	0	0	0	509	510	0	484	38	58	
0	0	0	0	0	507	512	0	484	38	59	
1	0	0	0	0	507	512	0	487	38	59	
2	0	0	0	0	509	512	0	483	38	60	
3	0	0	0	0	512	510	0	476	38	60	
4	0	0	0	0	512	509	0	482	38	60	
5	0	0	0	0	511	508	0	492	38	60	
6	0	0	0	0	512	509	0	504	38	59	
7	0	0	0	0	507	508	0	504	38	58	
8	0	0	0	0	510	507	0	495	38	59	
9	0	0	0	0	509	506	0	492	38	59	
10	0	0	0	0	510	507	0	488	38	60	
11	0	0	0	0	512	508	0	483	38	60	
12	0	0	0	0	512	508	0	494	38	60	
13	0	0	0	0	514	509	0	519	38	60	
14	0	0	0	0	511	509	0	538	38	59	
15	0	0	0	0	509	508	0	538	38	59	
0	0	0	0	0	507	507	0	540	38	58	
1	0	0	0	0	505	507	0	538	38	59	
2	0	0	0	0	509	507	0	532	38	60	
3	0	0	0	0	508	508	0	525	38	60	
4	0	0	0	0	507	507	0	527	38	60	
5	0	0	0	0	508	509	0	541	38	60	
6	0	0	0	0	508	510	0	548	38	59	
7	0	0	0	0	512	509	0	546	38	59	
8	0	0	0	0	511	509	0	543	38	58	
9	0	0	0	0	511	508	0	536	38	59	
10	0	0	0	0	509	510	0	528	38	59	
11	0	0	0	0	510	510	0	517	38	60	
12	0	0	0	0	509	511	0	497	38	60	
13	0	0	0	0	505	510	0	487	38	60	
14	0	0	0	0	507	509	0	491	38	60	
15	0	0	0	0	508	508	0	501	38	59	
0	0	0	0	0	512	508	0	504	38	58	
1	0	0	0	0	514	508	0	498	38	58	
2	0	0	0	0	514	508	0	503	38	59	
3	0	0	0	0	508	508	0	516	38	60	
4	0	0	0	0	499	507	0	540	38	60	
5	0	0	0	0	504	509	0	550	38	60	
6	0	0	0	0	508	511	0	549	38	60	
7	0	0	0	0	510	510	0	551	38	59	
8	0	0	0	0	507	509	0	547	38	58	
9	0	0	0	0	508	508	0	542	38	58	
10	0	0	0	0	511	509	0	521	38	59	
11	0	0	0	0	508	509	0	519	38	59	
12	0	0	0	0	509	508	0	526	38	60	
13	0	0	0	0	508	509	0	531	38	60	
14	0	0	0	0	509	509	0	524	38	60	
15	0	0	0	0	510	508	0	517	38	59	
0	0	0	0	0	508	508	0	510	38	59	
1	0	0	0	0	510	507	0	501	38	58	
2	0	0	0	0	510	507	0	474	38	59	
3	0	0	0	0	508	508	0	450	38	59	
4	0	0	0	0	509	508	0	448	38	60	
5	0	0	0	0	510	507	0	445	38	60	
6	0	0	0	0	508	506	0	453	38	60	
7	0	0	0	0	511	506	0	457	38	59	
8	0	0	0	0	510	507	0	457	38	59	
9	0	0	0	0	511	508	0	446	38	58	
10	0	0	0	0	507	508	0	428	38	58	
11	0	0	0	0	508	509	0	418	38	59	
12	0	0	0	0	509	507	0	411	38	60	
13	0	0	0	0	508	507	0	402	38	60	
14	0	0	0	0	506	507	0	391	38	60	
15	0	0	0	0	507	506	0	391	38	60	
0	0	0	0	0	507	507	0	413	38	59	
1	0	0	0	0	508	508	0	436	38	58	
2	0	0	0	0	508	508	0	458	38	58	
3	0	0	0	0	509	506	0	475	38	59	
4	0	0	0	0	508	505	0	489	38	59	
5	0	0	0	0	509	505	0	508	38	60	
6	0	0	0	0	510	505	0	533	38	60	
7	0	0	0	0	510	505	0	545	38	60	
8	0	0	0	0	508	506	0	539	38	59	
9	0	0	0	0	509	507	0	519	38	58	
10	0	0	0	0	508	505	0	505	38	58	
11	0	0	0	0	511	505	0	495	38	58	
12	0	0	0	0	508	504	0	483	38	59	
13	0	0	0	0	509	505	0	482	38	60	
14	0	0	0	0	510	508	0	475	38	60	
15	0	0	0	0	508	509	0	469	38	60	
0	0	0	0	0	507	511	0	473	38	59	
1	0	0	0	0	508	511	0	481	38	58	
2	0	0	0	0	508	511	0	487	38	57	
3	0	0	0	0	508	510	0	488	38	58	
4	0	0	0	0	507	508	0	495	38	59	
5	0	0	0	0	506	506	0	500	38	59	
6	0	0	0	0	505	506	0	496	38	60	
7	0	0	0	0	512	506	0	519	38	60	
8	0	0	0	0	518	506	0	526	38	59	
9	0	0	0	0	517	507	0	538	38	59	
10	0	0	0	0	518	508	0	553	38	58	
11	0	0	0	0	508	508	0	556	38	57	
12	0	0	0	0	504	508	0	546	38	58	
13	0	0	0	0	502	508	0	553	38	59	
14	0	0	0	0	504	508	0	566	38	60	
15	0	0	0	0	505	508	0	572	38	60	
0	0	0	0	0	508	510	0	575	38	60	
1	0	0	0	0	512	511	0	577	38	59	
2	0	0	0	0	513	511	0	561	38	58	
3	0	0	0	0	511	510	0	541	38	57	
4	0	0	0	0	512	510	0	529	38	58	
5	0	0	0	0	510	509	0	522	38	59	
6	0	0	0	0	509	509	0	526	38	59	
7	0	0	0	0	509	507	0	527	38	60	
8	0	0	0	0	508	506	0	527	38	60	
9	0	0	0	0	508	505	0	525	38	59	
10	0	0	0	0	509	505	0	521	38	58	
11	0	0	0	0	507	507	0	511	38	57	
12	0	0	0	0	509	507	0	494	38	58	
13	0	0	0	0	510	507	0	481	38	59	
14	0	0	0	0	510	508	0	480	38	59	
15	0	0	0	0	508	508	0	487	38	60	
0	0	0	0	0	510	508	0	486	38	60	
1	0	0	0	0	508	509	0	476	38	59	
2	0	0	0	0	508	508	0	473	38	59	
3	0	0	0	0	509	507	0	471	38	57	
4	0	0	0	0	508	507	0	464	38	57	
5	0	0	0	0	509	506	0	472	38	58	
6	0	0	0	0	510	507	0	470	38	59	
7	0	0	0	0	509	507	0	488	38	60	
8	0	0	0	0	509	508	0	511	38	60	
9	0	0	0	0	510	509	0	520	38	59	
10	0	0	0	0	508	509	0	516	38	59	
11	0	0	0	0	508	508	0	500	38	58	
12	0	0	0	0	508	509	0	495	38	57	
13	0	0	0	0	510	508	0	504	38	58	
14	0	0	0	0	508	510	0	525	38	59	
15	0	0	0	0	510	510	0	526	38	59	
0	0	0	0	0	508	511	0	517	38	60	
1	0	0	0	0	508	510	0	520	38	60	
2	0	0	0	0	507	509	0	540	38	59	
3	0	0	0	0	504	509	0	560	38	58	
4	0	0	0	0	497	508	0	572	38	57	
5	0	0	0	0	496	506	0	567	38	57	
6	0	0	0	0	511	506	0	555	38	58	
7	0	0	0	0	534	504	0	534	38	59	
8	0	0	0	0	537	504	0	531	38	60	
9	0	0	0	0	521	505	0	532	38	60	
10	0	0	0	0	503	504	0	518	38	59	
11	0	0	0	0	499	505	0	512	38	58	
12	0	0	0	0	504	505	0	511	38	57	
13	0	0	0	0	504	506	0	525	38	57	
14	0	0	0	0	507	505	0	514	38	58	
15	0	0	0	0	507	505	0	496	38	59	
0	0	0	0	0	506	506	0	483	38	59	
1	0	0	0	0	507	507	0	483	38	60	
2	0	0	0	0	508	508	0	491	38	59	
3	0	0	0	0	509	508	0	507	38	59	
4	0	0	0	0	508	510	0	525	38	57	
5	0	0	0	0	508	509	0	532	38	57	
6	0	0	0	0	510	509	0	547	38	58	
7	0	0	0	0	509	506	0	558	38	59	
8	0	0	0	0	511	506	0	567	38	59	
9	0	0	0	0	508	507	0	582	38	60	
10	0	0	0	0	509	507	0	600	38	59	
11	0	0	0	0	509	507	0	617	38	59	
12	0	0	0	0	508	508	0	621	38	58	
13	0	0	0	0	509	508	0	613	38	57	
14	0	0	0	0	509	508	0	595	38	57	
15	0	0	0	0	509	507	0	580	38	58	
0	0	0	0	0	510	508	0	556	38	59	
1	0	0	0	0	510	507	0	534	38	59	
2	0	0	0	0	510	508	0	526	38	59	
3	0	0	0	0	509	508	0	516	38	59	
4	0	0	0	0	509	507	0	528	38	58	
5	0	0	0	0	509	507	0	558	38	57	
6	0	0	0	0	508	507	0	591	38	57	
7	0	0	0	0	508	508	0	575	38	58	
8	0	0	0	0	510	507	0	562	38	59	
9	0	0	0	0	511	507	0	551	38	59	
10	0	0	0	0	511	507	0	548	38	59	
11	0	0	0	0	509	507	0	548	38	59	
12	0	0	0	0	511	509	0	540	38	58	
13	0	0	0	0	511	510	0	537	38	57	
14	0	0	0	0	510	509	0	543	38	56	
15	0	0	0	0	509	509	0	553	38	57	
0	0	0	0	0	509	508	0	542	38	59	
1	0	0	0	0	509	506	0	526	38	59	
2	0	0	0	0	506	507	0	507	38	59	
3	0	0	0	0	505	508	0	508	38	59	
4	0	0	0	0	508	508	0	515	38	59	
5	0	0	0	0	512	508	0	516	38	57	
6	0	0	0	0	512	508	0	490	38	56	
7	0	0	0	0	515	507	0	479	38	57	
8	0	0	0	0	512	507	0	494	38	58	
9	0	0	0	0	504	507	0	493	38	59	
10	0	0	0	0	507	507	0	509	38	59	
11	0	0	0	0	508	507	0	517	38	59	
12	0	0	0	0	508	506	0	513	38	59	
13	0	0	0	0	508	505	0	518	38	58	
14	0	0	0	0	510	505	0	530	38	56	
15	0	0	0	0	507	506	0	539	38	56	
0	0	0	0	0	507	508	0	547	38	58	
1	0	0	0	0	510	508	0	557	38	59	
2	0	0	0	0	512	509	0	562	38	59	
3	0	0	0	0	511	508	0	556	38	59	
4	0	0	0	0	510	510	0	555	38	59	
5	0	0	0	0	506	510	0	554	38	58	
6	0	0	0	0	504	509	0	546	38	56	
7	0	0	0	0	506	509	0	541	38	56	
8	0	0	0	0	504	508	0	547	38	57	
9	0	0	0	0	512	509	0	556	38	58	
10	0	0	0	0	520	510	0	566	38	59	
11	0	0	0	0	519	510	0	568	38	59	
12	0	0	0	0	515	509	0	575	38	59	
13	0	0	0	0	510	509	0	583	38	58	
14	0	0	0	0	508	511	0	589	38	57	
15	0	0	0	0	508	512	0	579	38	56	
0	0	0	0	0	509	511	0	564	38	57	
1	0	0	0	0	507	510	0	551	38	58	
2	0	0	0	0	505	509	0	537	38	59	
3	0	0	0	0	508	508	0	528	38	59	
4	0	0	0	0	508	508	0	512	38	59	
5	0	0	0	0	508	508	0	501	38	59	
6	0	0	0	0	506	507	0	495	38	57	
7	0	0	0	0	505	507	0	477	38	56	
8	0	0	0	0	505	508	0	466	38	56	
9	0	0	0	0	507	505	0	451	38	57	
10	0	0	0	0	512	504	0	443	38	59	
11	0	0	0	0	512	505	0	443	38	59	
12	0	0	0	0	510	507	0	452	38	59	
13	0	0	0	0	508	504	0	460	38	59	
14	0	0	0	0	509	505	0	476	38	58	
15	0	0	0	0	510	507	0	496	38	56	
0	0	0	0	0	510	505	0	512	38	56	
1	0	0	0	0	508	504	0	526	38	57	
2	0	0	0	0	509	505	0	503	38	58	
3	0	0	0	0	508	505	0	496	38	59	
4	0	0	0	0	508	504	0	520	38	59	
5	0	0	0	0	508	505	0	533	38	59	
6	0	0	0	0	510	506	0	550	38	58	
7	0	0	0	0	508	505	0	552	38	57	
8	0	0	0	0	509	506	0	550	38	56	
9	0	0	0	0	509	508	0	542	38	56	
10	0	0	0	0	507	507	0	536	38	58	
11	0	0	0	0	507	508	0	533	38	59	
12	0	0	0	0	507	509	0	526	38	59	
13	0	0	0	0	513	508	0	512	38	59	
14	0	0	0	0	514	509	0	486	38	59	
15	0	0	0	0	513	510	0	473	38	57	
0	0	0	0	0	510	508	0	470	38	56	
1	0	0	0	0	506	509	0	466	38	56	
2	0	0	0	0	506	509	0	457	38	57	
3	0	0	0	0	507	507	0	438	38	59	
4	0	0	0	0	505	506	0	435	38	59	
5	0	0	0	0	508	506	0	440	38	59	
6	0	0	0	0	510	507	0	446	38	59	
7	0	0	0	0	510	507	0	453	38	58	
8	0	0	0	0	510	506	0	470	38	56	
9	0	0	0	0	510	507	0	472	38	56	
10	0	0	0	0	507	507	0	487	38	57	
11	0	0	0	0	508	508	0	495	38	58	
12	0	0	0	0	509	508	0	491	38	59	
13	0	0	0	0	510	507	0	485	38	59	
14	0	0	0	0	511	505	0	488	38	59	
15	0	0	0	0	508	504	0	489	38	58	
0	0	0	0	0	508	503	0	490	38	56	
1	0	0	0	0	508	502	0	490	38	56	
2	0	0	0	0	510	503	0	481	38	56	
3	0	0	0	0	511	503	0	487	38	58	
4	0	0	0	0	511	503	0	497	38	59	
5	0	0	0	0	510	504	0	513	38	59	
6	0	0	0	0	508	506	0	501	38	59	
7	0	0	0	0	510	508	0	476	38	58	
8	0	0	0	0	509	507	0	469	38	57	
9	0	0	0	0	507	507	0	470	38	56	
10	0	0	0	0	508	508	0	479	38	56	
11	0	0	0	0	509	508	0	458	38	57	
12	0	0	0	0	509	507	0	433	38	58	
13	0	0	0	0	510	508	0	414	38	59	
14	0	0	0	0	507	507	0	399	38	59	
15	0	0	0	0	509	506	0	394	38	59	
0	0	0	0	0	507	506	0	387	38	57	
1	0	0	0	0	508	506	0	391	38	56	
2	0	0	0	0	508	507	0	419	38	56	
3	0	0	0	0	509	507	0	460	38	57	
4	0	0	0	0	506	508	0	492	38	58	
5	0	0	0	0	510	507	0	507	38	59	
6	0	0	0	0	510	506	0	504	38	59	
7	0	0	0	0	510	506	0	512	38	59	
8	0	0	0	0	508	508	0	513	38	58	
9	0	0	0	0	510	508	0	504	38	56	
10	0	0	0	0	507	508	0	479	38	55	
11	0	0	0	0	508	507	0	448	38	56	
12	0	0	0	0	510	506	0	445	38	58	
13	0	0	0	0	509	507	0	451	38	59	
14	0	0	0	0	504	507	0	472	38	59	
15	0	0	0	0	505	508	0	494	38	59	
0	0	0	0	0	511	508	0	511	38	58	
1	0	0	0	0	511	507	0	516	38	57	
2	0	0	0	0	512	507	0	501	38	55	
3	0	0	0	0	510	508	0	484	38	56	
4	0	0	0	0	505	507	0	449	38	57	
5	0	0	0	0	501	507	0	407	38	58	
6	0	0	0	0	509	506	0	393	38	59	
7	0	0	0	0	515	507	0	396	38	59	
8	0	0	0	0	518	507	0	417	38	59	
9	0	0	0	0	517	507	0	437	38	57	
10	0	0	0	0	512	508	0	452	38	56	
11	0	0	0	0	507	508	0	467	38	56	
12	0	0	0	0	505	508	0	504	38	57	
13	0	0	0	0	509	509	0	531	38	58	
14	0	0	0	0	508	510	0	534	38	59	
15	0	0	0	0	508	511	0	528	38	59	
0	0	0	0	0	507	513	0	526	38	59	
1	0	0	0	0	509	513	0	532	38	58	
2	0	0	0	0	508	513	0	534	38	56	
3	0	0	0	0	507	512	0	529	38	55	
4	0	0	0	0	508	511	0	534	38	56	
5	0	0	0	0	510	512	0	533	38	58	
6	0	0	0	0	511	510	0	528	38	59	
7	0	0	0	0	509	510	0	523	38	59	
8	0	0	0	0	508	511	0	527	38	59	
9	0	0	0	0	508	509	0	508	38	58	
10	0	0	0	0	508	511	0	517	38	56	
11	0	0	0	0	510	509	0	540	38	55	
12	0	0	0	0	510	508	0	536	38	56	
13	0	0	0	0	508	507	0	524	38	57	
14	0	0	0	0	508	507	0	514	38	58	
15	0	0	0	0	509	507	0	522	38	59	
0	0	0	0	0	508	509	0	527	38	59	
1	0	0	0	0	510	509	0	542	38	58	
2	0	0	0	0	511	508	0	536	38	57	
3	0	0	0	0	508	509	0	524	38	56	
4	0	0	0	0	511	509	0	524	38	55	
5	0	0	0	0	509	508	0	511	38	57	
6	0	0	0	0	509	507	0	488	38	58	
7	0	0	0	0	509	507	0	463	38	59	
8	0	0	0	0	509	507	0	444	38	59	
9	0	0	0	0	510	507	0	452	38	59	
10	0	0	0	0	508	506	0	462	38	58	
11	0	0	0	0	510	507	0	487	38	56	
12	0	0	0	0	507	507	0	499	38	55	
13	0	0	0	0	509	506	0	502	38	56	
14	0	0	0	0	508	506	0	497	38	58	
15	0	0	0	0	511	506	0	488	38	59	
0	0	0	0	0	510	505	0	478	38	59	
1	0	0	0	0	507	506	0	472	38	59	
2	0	0	0	0	508	505	0	454	38	58	
3	0	0	0	0	508	503	0	449	38	56	
4	0	0	0	0	509	502	0	455	38	55	
5	0	0	0	0	509	504	0	464	38	56	
6	0	0	0	0	510	504	0	466	38	57	
7	0	0	0	0	507	505	0	470	38	58	
8	0	0	0	0	510	505	0	479	38	59	
9	0	0	0	0	511	506	0	480	38	59	
10	0	0	0	0	509	507	0	501	38	58	
11	0	0	0	0	509	506	0	510	38	57	
12	0	0	0	0	509	509	0	528	38	55	
13	0	0	0	0	510	509	0	548	38	55	
14	0	0	0	0	509	510	0	560	38	57	
15	0	0	0	0	507	509	0	563	38	58	
0	0	0	0	0	508	508	0	545	38	59	
1	0	0	0	0	508	509	0	521	38	59	
2	0	0	0	0	507	508	0	517	38	59	
3	0	0	0	0	508	510	0	525	38	57	
4	0	0	0	0	508	509	0	541	38	56	
5	0	0	0	0	506	509	0	535	38	55	
6	0	0	0	0	507	510	0	517	38	56	
7	0	0	0	0	508	509	0	508	38	58	
8	0	0	0	0	508	509	0	500	38	59	
9	0	0	0	0	508	508	0	504	38	59	
10	0	0	0	0	511	507	0	510	38	59	
11	0	0	0	0	512	508	0	500	38	58	
12	0	0	0	0	511	506	0	501	38	56	
13	0	0	0	0	510	508	0	519	38	55	
14	0	0	0	0	509	508	0	535	38	56	
15	0	0	0	0	510	507	0	540	38	57	
0	0	0	0	0	510	508	0	536	38	58	
1	0	0	0	0	509	508	0	540	38	59	
2	0	0	0	0	509	507	0	545	38	59	
3	0	0	0	0	508	508	0	547	38	58	
4	0	0	0	0	509	509	0	551	38	57	
5	0	0	0	0	510	508	0	552	38	55	
6	0	0	0	0	508	508	0	554	38	55	
7	0	0	0	0	508	507	0	552	38	57	
8	0	0	0	0	508	507	0	551	38	58	
9	0	0	0	0	508	507	0	557	38	59	
10	0	0	0	0	505	508	0	557	38	59	
11	0	0	0	0	503	508	0	535	38	59	
12	0	0	0	0	505	509	0	496	38	57	
13	0	0	0	0	510	509	0	475	38	56	
14	0	0	0	0	515	509	0	450	38	55	
15	0	0	0	0	517	508	0	429	38	56	
0	0	0	0	0	513	510	0	416	38	57	
1	0	0	0	0	510	509	0	421	38	58	
2	0	0	0	0	509	510	0	433	38	59	
3	0	0	0	0	507	510	0	437	38	59	
4	0	0	0	0	508	509	0	439	38	58	
5	0	0	0	0	507	508	0	454	38	56	
6	0	0	0	0	508	509	0	486	38	55	
7	0	0	0	0	508	507	0	502	38	56	
8	0	0	0	0	510	508	0	500	38	57	
9	0	0	0	0	508	508	0	499	38	58	
10	0	0	0	0	509	508	0	495	38	59	
11	0	0	0	0	509	507	0	496	38	59	
12	0	0	0	0	510	508	0	506	38	58	
13	0	0	0	0	508	507	0	521	38	57	
14	0	0	0	0	508	505	0	501	38	55	
15	0	0	0	0	510	506	0	499	38	55	
0	0	0	0	0	507	507	0	511	38	57	
1	0	0	0	0	508	508	0	518	38	58	
2	0	0	0	0	508	509	0	521	38	59	
3	0	0	0	0	506	511	0	513	38	59	
4	0	0	0	0	505	511	0	506	38	58	
5	0	0	0	0	505	511	0	504	38	57	
6	0	0	0	0	505	510	0	509	38	55	
7	0	0	0	0	512	508	0	513	38	55	
8	0	0	0	0	517	506	0	519	38	56	
9	0	0	0	0	522	507	0	531	38	57	
10	0	0	0	0	515	508	0	553	38	58	
11	0	0	0	0	506	509	0	554	38	59	
12	0	0	0	0	509	507	0	543	38	59	
13	0	0	0	0	510	507	0	534	38	58	
14	0	0	0	0	510	507	0	533	38	56	
15	0	0	0	0	508	507	0	526	38	55	
0	0	0	0	0	511	508	0	518	38	56	
1	0	0	0	0	509	507	0	528	38	57	
2	0	0	0	0	508	507	0	514	38	58	
3	0	0	0	0	507	509	0	528	38	59	
4	0	0	0	0	508	509	0	557	38	59	
5	0	0	0	0	507	508	0	574	38	58	
6	0	0	0	0	510	509	0	599	38	56	
7	0	0	0	0	508	510	0	608	38	55	
8	0	0	0	0	508	511	0	611	38	55	
9	0	0	0	0	507	510	0	606	38	57	
10	0	0	0	0	508	511	0	588	38	58	
11	0	0	0	0	510	511	0	573	38	59	
12	0	0	0	0	502	510	0	561	38	59	
13	0	0	0	0	494	512	0	560	38	58	
14	0	0	0	0	496	509	0	553	38	57	
15	0	0	0	0	514	508	0	549	38	55	
0	0	0	0	0	534	508	0	545	38	55	
1	0	0	0	0	534	507	0	538	38	56	
2	0	0	0	0	519	508	0	549	38	57	
3	0	0	0	0	500	509	0	564	38	58	
4	0	0	0	0	501	509	0	564	38	59	
5	0	0	0	0	505	508	0	540	38	59	
6	0	0	0	0	505	507	0	528	38	57	
7	0	0	0	0	510	508	0	531	38	56	
8	0	0	0	0	509	508	0	526	38	55	
9	0	0	0	0	507	508	0	528	38	56	
10	0	0	0	0	508	507	0	521	38	57	
11	0	0	0	0	506	508	0	487	38	58	
12	0	0	0	0	507	508	0	462	38	59	
13	0	0	0	0	508	508	0	443	38	59	
14	0	0	0	0	508	509	0	434	38	58	
15	0	0	0	0	507	508	0	427	38	56	
0	0	0	0	0	509	508	0	415	38	55	
1	0	0	0	0	508	507	0	412	38	55	
2	0	0	0	0	507	507	0	414	38	57	
3	0	0	0	0	509	507	0	431	38	58	
4	0	0	0	0	510	507	0	446	38	59	
5	0	0	0	0	510	507	0	457	38	59	
6	0	0	0	0	510	507	0	488	38	58	
7	0	0	0	0	510	507	0	487	38	57	
8	0	0	0	0	510	506	0	489	38	55	
9	0	0	0	0	510	507	0	495	38	55	
10	0	0	0	0	508	508	0	499	38	56	
11	0	0	0	0	509	507	0	507	38	57	
12	0	0	0	0	509	509	0	509	38	58	
13	0	0	0	0	510	509	0	500	38	59	
14	0	0	0	0	510	509	0	494	38	59	
15	0	0	0	0	508	508	0	483	38	57	
0	0	0	0	0	508	510	0	489	38	56	
1	0	0	0	0	511	509	0	503	38	55	
2	0	0	0	0	509	509	0	508	38	56	
3	0	0	0	0	509	508	0	500	38	57	
4	0	0	0	0	508	507	0	493	38	58	
5	0	0	0	0	510	509	0	495	38	59	
6	0	0	0	0	510	509	0	507	38	59	
7	0	0	0	0	510	507	0	509	38	58	
8	0	0	0	0	509	506	0	494	38	56	
9	0	0	0	0	508	506	0	477	38	55	
10	0	0	0	0	509	506	0	478	38	55	
11	0	0	0	0	510	505	0	482	38	57	
12	0	0	0	0	511	507	0	489	38	58	
13	0	0	0	0	508	507	0	499	38	59	
14	0	0	0	0	507	507	0	500	38	59	
15	0	0	0	0	509	507	0	521	38	58	
0	0	0	0	0	508	506	0	548	38	57	
1	0	0	0	0	507	508	0	564	38	55	
2	0	0	0	0	506	508	0	562	38	55	
3	0	0	0	0	509	507	0	555	38	56	
4	0	0	0	0	508	508	0	562	38	57	
5	0	0	0	0	508	506	0	559	38	58	
6	0	0	0	0	508	505	0	549	38	59	
7	0	0	0	0	509	505	0	531	38	59	
8	0	0	0	0	509	505	0	518	38	57	
9	0	0	0	0	510	507	0	524	38	56	
10	0	0	0	0	511	507	0	520	38	55	
11	0	0	0	0	508	507	0	511	38	56	
12	0	0	0	0	509	507	0	499	38	57	
13	0	0	0	0	509	507	0	489	38	58	
14	0	0	0	0	508	508	0	478	38	59	
15	0	0	0	0	509	507	0	471	38	59	
0	0	0	0	0	508	508	0	470	38	58	
1	0	0	0	0	510	506	0	472	38	56	
2	0	0	0	0	510	506	0	459	38	55	
3	0	0	0	0	509	507	0	456	38	55	
4	0	0	0	0	509	508	0	456	38	57	
5	0	0	0	0	508	510	0	459	38	58	
6	0	0	0	0	509	508	0	459	38	59	
7	0	0	0	0	508	508	0	463	38	59	
8	0	0	0	0	510	509	0	475	38	58	
9	0	0	0	0	508	508	0	483	38	57	
10	0	0	0	0	508	508	0	496	38	55	
11	0	0	0	0	507	508	0	509	38	55	
12	0	0	0	0	509	508	0	488	38	56	
13	0	0	0	0	510	508	0	485	38	57	
14	0	0	0	0	509	507	0	496	38	58	
15	0	0	0	0	509	508	0	496	38	59	
0	0	0	0	0	509	507	0	475	38	58	
1	0	0	0	0	507	509	0	447	38	57	
2	0	0	0	0	505	510	0	440	38	55	
3	0	0	0	0	509	509	0	432	38	55	
4	0	0	0	0	509	510	0	441	38	56	
5	0	0	0	0	512	509	0	469	38	57	
6	0	0	0	0	513	508	0	487	38	58	
7	0	0	0	0	511	510	0	494	38	59	
8	0	0	0	0	507	508	0	496	38	59	
9	0	0	0	0	505	507	0	504	38	58	
10	0	0	0	0	507	507	0	514	38	56	
11	0	0	0	0	509	505	0	515	38	55	
12	0	0	0	0	512	506	0	528	38	55	
13	0	0	0	0	515	506	0	531	38	56	
14	0	0	0	0	513	505	0	521	38	58	
15	0	0	0	0	508	505	0	521	38	59	
0	0	0	0	0	507	505	0	524	38	59	
1	0	0	0	0	508	503	0	541	38	58	
2	0	0	0	0	510	504	0	562	38	56	
3	0	0	0	0	507	505	0	558	38	55	
4	0	0	0	0	510	507	0	550	38	55	
5	0	0	0	0	511	506	0	547	38	56	
6	0	0	0	0	514	506	0	556	38	57	
7	0	0	0	0	513	507	0	545	38	58	
8	0	0	0	0	509	508	0	542	38	59	
9	0	0	0	0	508	508	0	535	38	58	
10	0	0	0	0	508	508	0	520	38	57	
11	0	0	0	0	508	508	0	509	38	55	
12	0	0	0	0	508	508	0	506	38	55	
13	0	0	0	0	508	507	0	488	38	55	
14	0	0	0	0	507	505	0	480	38	57	
15	0	0	0	0	509	505	0	472	38	58	
0	0	0	0	0	509	505	0	466	38	59	
1	0	0	0	0	507	505	0	472	38	58	
2	0	0	0	0	508	505	0	488	38	57	
3	0	0	0	0	507	505	0	498	38	56	
4	0	0	0	0	508	505	0	496	38	54	
5	0	0	0	0	507	507	0	502	38	55	
6	0	0	0	0	509	508	0	507	38	56	
7	0	0	0	0	509	508	0	500	38	58	
8	0	0	0	0	509	510	0	490	38	58	
9	0	0	0	0	511	509	0	489	38	59	
10	0	0	0	0	510	510	0	500	38	58	
11	0	0	0	0	511	509	0	516	38	56	
12	0	0	0	0	506	512	0	523	38	55	
13	0	0	0	0	510	512	0	518	38	55	
14	0	0	0	0	508	511	0	508	38	56	
15	0	0	0	0	510	509	0	505	38	57	
0	0	0	0	0	510	508	0	515	38	58	
1	0	0	0	0	508	509	0	535	38	59	
2	0	0	0	0	511	508	0	553	38	58	
3	0	0	0	0	511	506	0	559	38	57	
4	0	0	0	0	510	507	0	559	38	55	
5	0	0	0	0	509	508	0	557	38	54	
6	0	0	0	0	510	507	0	560	38	55	
7	0	0	0	0	506	507	0	556	38	57	
8	0	0	0	0	509	507	0	536	38	58	
9	0	0	0	0	509	509	0	531	38	59	
10	0	0	0	0	510	509	0	546	38	58	
11	0	0	0	0	511	507	0	552	38	57	
12	0	0	0	0	509	508	0	543	38	55	
13	0	0	0	0	507	508	0	522	38	54	
14	0	0	0	0	508	507	0	529	38	55	
15	0	0	0	0	506	508	0	505	38	56	
0	0	0	0	0	510	508	0	487	38	58	
1	0	0	0	0	510	509	0	469	38	58	
2	0	0	0	0	510	510	0	453	38	58	
3	0	0	0	0	510	509	0	451	38	58	
4	0	0	0	0	508	509	0	467	38	56	
5	0	0	0	0	509	508	0	481	38	54	
6	0	0	0	0	509	507	0	478	38	54	
7	0	0	0	0	507	508	0	480	38	56	
8	0	0	0	0	509	509	0	489	38	57	
9	0	0	0	0	510	510	0	493	38	58	
10	0	0	0	0	512	509	0	497	38	58	
11	0	0	0	0	508	508	0	487	38	58	
12	0	0	0	0	508	508	0	477	38	56	
13	0	0	0	0	509	509	0	483	38	55	
14	0	0	0	0	511	509	0	491	38	54	
15	0	0	0	0	511	511	0	504	38	55	
0	0	0	0	0	511	511	0	516	38	57	
1	0	0	0	0	510	512	0	524	38	58	
2	0	0	0	0	508	514	0	530	38	58	
3	0	0	0	0	509	512	0	528	38	58	
4	0	0	0	0	508	512	0	529	39	57	
5	0	0	0	0	510	511	0	512	38	55	
6	0	0	0	0	509	510	0	487	38	54	
7	0	0	0	0	509	511	0	481	38	55	
8	0	0	0	0	509	511	0	479	38	56	
9	0	0	0	0	508	510	0	474	38	57	
10	0	0	0	0	509	509	0	470	38	58	
11	0	0	0	0	509	510	0	465	38	58	
12	0	0	0	0	510	510	0	463	38	57	
13	0	0	0	0	511	509	0	481	38	56	
14	0	0	0	0	509	508	0	502	38	54	
15	0	0	0	0	509	508	0	504	38	54	
0	0	0	0	0	509	508	0	490	38	56	
1	0	0	0	0	511	508	0	498	38	57	
2	0	0	0	0	510	509	0	516	38	58	
3	0	0	0	0	508	510	0	519	38	58	
4	0	0	0	0	508	509	0	523	38	58	
5	0	0	0	0	507	509	0	509	38	56	
6	0	0	0	0	508	509	0	510	38	54	
7	0	0	0	0	508	508	0	521	38	54	
8	0	0	0	0	509	508	0	536	38	55	
9	0	0	0	0	509	509	0	537	38	56	
10	0	0	0	0	509	510	0	516	38	57	
11	0	0	0	0	507	512	0	508	38	58	
12	0	0	0	0	507	510	0	512	38	58	
13	0	0	0	0	510	511	0	526	38	56	
14	0	0	0	0	508	510	0	540	38	55	
15	0	0	0	0	510	511	0	544	38	54	
0	0	0	0	0	508	512	0	550	38	54	
1	0	0	0	0	508	510	0	544	38	56	
2	0	0	0	0	510	510	0	528	38	57	
3	0	0	0	0	508	510	0	504	38	58	
4	0	0	0	0	510	510	0	497	38	58	
5	0	0	0	0	509	509	0	508	38	57	
6	0	0	0	0	511	509	0	521	38	55	
7	0	0	0	0	511	508	0	540	38	54	
8	0	0	0	0	510	507	0	510	38	54	
9	0	0	0	0	507	507	0	465	38	55	
10	0	0	0	0	508	507	0	460	38	57	
11	0	0	0	0	508	505	0	476	38	58	
12	0	0	0	0	511	507	0	499	38	58	
13	0	0	0	0	513	507	0	510	38	57	
14	0	0	0	0	511	508	0	504	38	56	
15	0	0	0	0	511	508	0	495	38	54	
0	0	0	0	0	510	508	0	484	38	54	
1	0	0	0	0	510	507	0	484	38	55	
2	0	0	0	0	509	507	0	486	38	56	
3	0	0	0	0	509	505	0	483	38	57	
4	0	0	0	0	508	507	0	497	38	58	
5	0	0	0	0	508	505	0	516	38	58	
6	0	0	0	0	508	505	0	540	38	56	
7	0	0	0	0	509	505	0	536	38	54	
8	0	0	0	0	511	505	0	543	38	54	
9	0	0	0	0	511	504	0	535	38	54	
10	0	0	0	0	509	503	0	533	38	56	
11	0	0	0	0	509	503	0	520	38	57	
12	0	0	0	0	508	504	0	502	38	58	
13	0	0	0	0	508	505	0	480	38	58	
14	0	0	0	0	507	504	0	471	38	57	
15	0	0	0	0	509	505	0	466	38	55	
0	0	0	0	0	508	504	0	478	38	54	
1	0	0	0	0	509	505	0	479	38	54	
2	0	0	0	0	510	504	0	475	38	55	
3	0	0	0	0	509	507	0	480	38	57	
4	0	0	0	0	509	507	0	482	38	58	
5	0	0	0	0	508	508	0	491	38	58	
6	0	0	0	0	510	508	0	484	38	57	
7	0	0	0	0	509	509	0	484	38	55	
8	0	0	0	0	507	509	0	484	38	54	
9	0	0	0	0	507	508	0	483	38	54	
10	0	0	0	0	508	508	0	492	38	55	
11	0	0	0	0	510	507	0	510	38	56	
12	0	0	0	0	510	506	0	519	38	57	
13	0	0	0	0	508	506	0	525	38	58	
14	0	0	0	0	510	506	0	521	38	57	
15	0	0	0	0	511	504	0	521	38	56	
0	0	0	0	0	509	504	0	511	38	54	
1	0	0	0	0	510	504	0	498	38	53	
2	0	0	0	0	508	504	0	502	38	54	
3	0	0	0	0	512	505	0	507	38	56	
4	0	0	0	0	511	504	0	506	38	57	
5	0	0	0	0	509	504	0	490	38	58	
6	0	0	0	0	509	504	0	471	38	58	
7	0	0	0	0	510	504	0	472	38	57	
8	0	0	0	0	511	503	0	458	38	55	
9	0	0	0	0	510	504	0	449	38	54	
10	0	0	0	0	510	505	0	455	38	54	
11	0	0	0	0	508	505	0	456	38	55	
12	0	0	0	0	508	506	0	454	38	57	
13	0	0	0	0	508	507	0	451	38	57	
14	0	0	0	0	507	507	0	443	38	58	
15	0	0	0	0	507	508	0	438	38	57	
0	0	0	0	0	508	508	0	429	38	55	
1	0	0	0	0	508	509	0	432	38	54	
2	0	0	0	0	511	508	0	445	38	54	
3	0	0	0	0	507	507	0	455	38	55	
4	0	0	0	0	509	506	0	463	38	56	
5	0	0	0	0	509	507	0	468	38	57	
6	0	0	0	0	509	506	0	470	38	58	
7	0	0	0	0	510	506	0	472	38	57	
8	0	0	0	0	510	507	0	482	38	56	
9	0	0	0	0	509	506	0	487	38	54	
10	0	0	0	0	507	504	0	481	38	53	
11	0	0	0	0	510	504	0	481	38	54	
12	0	0	0	0	511	505	0	480	38	56	
13	0	0	0	0	509	505	0	495	38	57	
14	0	0	0	0	511	505	0	502	38	58	
15	0	0	0	0	508	505	0	502	38	58	
0	0	0	0	0	508	507	0	512	38	56	
1	0	0	0	0	512	510	0	535	38	55	
2	0	0	0	0	510	510	0	551	38	53	
3	0	0	0	0	508	510	0	560	38	54	
4	0	0	0	0	510	510	0	561	38	55	
5	0	0	0	0	510	510	0	575	38	56	
6	0	0	0	0	507	510	0	570	38	57	
7	0	0	0	0	510	508	0	557	38	58	
8	0	0	0	0	510	508	0	544	38	57	
9	0	0	0	0	508	508	0	524	38	55	
10	0	0	0	0	510	509	0	507	38	54	
11	0	0	0	0	510	509	0	509	38	53	
12	0	0	0	0	511	508	0	517	38	55	
13	0	0	0	0	510	508	0	509	38	56	
14	0	0	0	0	509	509	0	502	38	57	
15	0	0	0	0	509	508	0	527	38	58	
0	0	0	0	0	509	508	0	541	38	57	
1	0	0	0	0	509	508	0	553	38	56	
2	0	0	0	0	511	508	0	553	38	54	
3	0	0	0	0	510	507	0	532	38	53	
4	0	0	0	0	510	508	0	515	38	54	
5	0	0	0	0	510	508	0	515	38	56	
6	0	0	0	0	506	508	0	508	38	57	
7	0	0	0	0	508	508	0	499	38	58	
8	0	0	0	0	510	509	0	493	38	58	
9	0	0	0	0	508	507	0	494	38	56	
10	0	0	0	0	509	508	0	506	38	55	
11	0	0	0	0	507	508	0	514	38	53	
12	0	0	0	0	508	505	0	508	38	54	
13	0	0	0	0	510	505	0	492	38	55	
14	0	0	0	0	510	508	0	482	38	57	
15	0	0	0	0	508	508	0	480	38	57	
0	0	0	0	0	506	508	0	486	38	58	
1	0	0	0	0	509	510	0	489	38	57	
2	0	0	0	0	507	510	0	479	38	55	
3	0	0	0	0	512	509	0	480	38	54	
4	0	0	0	0	512	508	0	484	38	53	
5	0	0	0	0	509	507	0	477	38	55	
6	0	0	0	0	510	506	0	473	38	56	
7	0	0	0	0	508	507	0	468	38	57	
8	0	0	0	0	509	508	0	473	38	58	
9	0	0	0	0	510	508	0	476	38	57	
10	0	0	0	0	508	507	0	486	38	56	
11	0	0	0	0	510	507	0	486	38	54	
12	0	0	0	0	508	507	0	472	38	53	
13	0	0	0	0	509	508	0	475	38	54	
14	0	0	0	0	509	510	0	483	38	56	
15	0	0	0	0	509	510	0	494	38	57	
0	0	0	0	0	509	510	0	484	38	58	
1	0	0	0	0	509	509	0	456	38	58	
2	0	0	0	0	508	508	0	441	38	56	
3	0	0	0	0	510	508	0	449	38	54	
4	0	0	0	0	510	507	0	466	38	53	
5	0	0	0	0	510	507	0	457	38	54	
6	0	0	0	0	511	508	0	444	38	55	
7	0	0	0	0	510	507	0	452	38	57	
8	0	0	0	0	511	508	0	458	38	57	
9	0	0	0	0	508	509	0	459	38	58	
10	0	0	0	0	511	508	0	452	38	57	
11	0	0	0	0	510	508	0	448	38	55	
12	0	0	0	0	509	508	0	475	38	54	
13	0	0	0	0	508	508	0	499	38	54	
14	0	0	0	0	509	510	0	515	38	55	
15	0	0	0	0	507	510	0	512	38	56	
0	0	0	0	0	508	512	0	499	38	57	
1	0	0	0	0	511	512	0	496	38	58	
2	0	0	0	0	510	511	0	502	38	57	
3	0	0	0	0	509	510	0	517	38	56	
4	0	0	0	0	509	508	0	510	38	54	
5	0	0	0	0	506	508	0	495	38	53	
6	0	0	0	0	509	508	0	506	38	54	
7	0	0	0	0	509	509	0	531	38	56	
8	0	0	0	0	509	510	0	557	38	57	
9	0	0	0	0	511	510	0	580	38	58	
10	0	0	0	0	509	509	0	588	38	58	
11	0	0	0	0	510	510	0	585	38	56	
12	0	0	0	0	510	509	0	587	38	54	
13	0	0	0	0	509	508	0	583	38	53	
14	0	0	0	0	507	507	0	569	38	54	
15	0	0	0	0	507	505	0	561	38	55	
0	0	0	0	0	508	507	0	561	38	57	
1	0	0	0	0	510	506	0	559	38	58	
2	0	0	0	0	509	507	0	554	38	58	
3	0	0	0	0	511	506	0	549	38	57	
4	0	0	0	0	510	507	0	548	38	55	
5	0	0	0	0	510	507	0	563	38	54	
6	0	0	0	0	511	507	0	583	38	54	
7	0	0	0	0	510	507	0	614	38	55	
8	0	0	0	0	509	507	0	615	38	56	
9	0	0	0	0	508	508	0	591	38	57	
10	0	0	0	0	510	508	0	576	38	58	
11	0	0	0	0	508	509	0	567	38	57	
12	0	0	0	0	511	508	0	560	38	56	
13	0	0	0	0	510	508	0	553	38	54	
14	0	0	0	0	508	506	0	557	38	53	
15	0	0	0	0	510	507	0	565	38	54	
0	0	0	0	0	507	508	0	563	38	56	
1	0	0	0	0	507	509	0	564	38	57	
2	0	0	0	0	508	507	0	572	38	58	
3	0	0	0	0	507	507	0	569	38	58	
4	0	0	0	0	508	508	0	565	38	56	
5	0	0	0	0	510	508	0	565	38	54	
6	0	0	0	0	508	507	0	564	38	53	
7	0	0	0	0	511	507	0	553	38	54	
8	0	0	0	0	509	507	0	547	38	55	
9	0	0	0	0	510	507	0	551	38	57	
10	0	0	0	0	509	506	0	558	38	58	
11	0	0	0	0	507	507	0	558	38	58	
12	0	0	0	0	512	506	0	538	38	57	
13	0	0	0	0	508	507	0	511	38	55	
14	0	0	0	0	509	508	0	500	38	54	
15	0	0	0	0	509	508	0	499	38	54	
0	0	0	0	0	510	509	0	505	38	55	
1	0	0	0	0	508	509	0	502	38	56	
2	0	0	0	0	508	510	0	482	38	57	
3	0	0	0	0	508	508	0	483	38	58	
4	0	0	0	0	507	508	0	496	38	57	
5	0	0	0	0	511	509	0	515	38	56	
6	0	0	0	0	508	509	0	514	38	54	
7	0	0	0	0	508	510	0	504	38	54	
8	0	0	0	0	512	511	0	499	38	55	
9	0	0	0	0	511	511	0	495	38	56	
10	0	0	0	0	510	511	0	503	38	57	
11	0	0	0	0	509	513	0	505	38	58	
12	0	0	0	0	511	514	0	501	38	58	
13	0	0	0	0	509	513	0	507	38	56	
14	0	0	0	0	509	512	0	515	38	54	
15	0	0	0	0	510	512	0	523	38	54	
0	0	0	0	0	511	510	0	516	38	54	
1	0	0	0	0	509	510	0	505	38	56	
2	0	0	0	0	509	511	0	486	38	57	
3	0	0	0	0	509	508	0	493	38	58	
4	0	0	0	0	508	507	0	500	38	58	
5	0	0	0	0	508	508	0	503	38	57	
6	0	0	0	0	511	508	0	498	38	55	
7	0	0	0	0	509	508	0	503	38	54	
8	0	0	0	0	510	508	0	495	38	54	
9	0	0	0	0	508	508	0	481	38	55	
10	0	0	0	0	509	509	0	469	38	56	
11	0	0	0	0	514	508	0	448	38	57	
12	0	0	0	0	510	507	0	449	38	58	
13	0	0	0	0	509	510	0	470	38	57	
14	0	0	0	0	510	511	0	502	38	56	
15	0	0	0	0	510	510	0	521	38	54	
0	0	0	0	0	508	510	0	513	38	54	
1	0	0	0	0	508	510	0	525	38	55	
2	0	0	0	0	510	509	0	542	38	56	
3	0	0	0	0	508	509	0	542	38	57	
4	0	0	0	0	510	508	0	532	38	58	
5	0	0	0	0	510	505	0	534	38	58	
6	0	0	0	0	508	504	0	521	38	56	
7	0	0	0	0	508	506	0	518	38	54	
8	0	0	0	0	510	506	0	524	38	54	
9	0	0	0	0	506	507	0	524	38	54	
10	0	0	0	0	506	506	0	515	38	56	
11	0	0	0	0	508	507	0	510	38	57	
12	0	0	0	0	509	507	0	511	38	58	
13	0	0	0	0	509	505	0	492	38	58	
14	0	0	0	0	512	506	0	492	38	57	
15	0	0	0	0	511	506	0	497	38	55	
0	0	0	0	0	509	506	0	518	38	54	
1	0	0	0	0	510	507	0	537	38	54	
2	0	0	0	0	510	507	0	550	38	55	
3	0	0	0	0	508	505	0	558	38	57	
4	0	0	0	0	509	506	0	567	38	58	
5	0	0	0	0	507	507	0	585	38	58	
6	0	0	0	0	509	506	0	601	38	57	
7	0	0	0	0	509	505	0	592	38	56	
8	0	0	0	0	510	507	0	572	38	54	
9	0	0	0	0	508	508	0	555	38	54	
10	0	0	0	0	510	508	0	555	38	55	
11	0	0	0	0	510	508	0	556	38	56	
12	0	0	0	0	509	507	0	551	38	57	
13	0	0	0	0	509	507	0	549	38	58	
14	0	0	0	0	508	509	0	546	38	58	
15	0	0	0	0	507	509	0	549	38	56	
0	0	0	0	0	507	510	0	550	38	54	
1	0	0	0	0	508	509	0	554	38	54	
2	0	0	0	0	506	508	0	526	38	54	
3	0	0	0	0	508	507	0	508	38	56	
4	0	0	0	0	510	507	0	504	38	57	
5	0	0	0	0	509	508	0	479	38	58	
6	0	0	0	0	508	507	0	473	38	58	
7	0	0	0	0	509	506	0	475	38	57	
8	0	0	0	0	510	507	0	481	38	55	
9	0	0	0	0	511	507	0	489	38	54	
10	0	0	0	0	511	507	0	501	38	54	
11	0	0	0	0	511	505	0	521	38	55	
12	0	0	0	0	509	504	0	521	38	57	
13	0	0	0	0	509	505	0	508	38	58	
14	0	0	0	0	509	506	0	495	38	58	
15	0	0	0	0	510	508	0	483	38	57	
0	0	0	0	0	509	507	0	485	38	56	
1	0	0	0	0	507	507	0	488	38	54	
2	0	0	0	0	508	508	0	480	38	54	
3	0	0	0	0	509	508	0	481	38	55	
4	0	0	0	0	511	507	0	502	38	56	
5	0	0	0	0	509	507	0	521	38	57	
6	0	0	0	0	510	508	0	523	38	58	
7	0	0	0	0	510	508	0	516	38	58	
8	0	0	0	0	509	509	0	520	38	56	
9	0	0	0	0	510	509	0	529	38	54	
10	0	0	0	0	509	511	0	540	38	54	
11	0	0	0	0	508	511	0	561	38	54	
12	0	0	0	0	509	510	0	567	38	56	
13	0	0	0	0	511	509	0	572	38	57	
14	0	0	0	0	510	508	0	587	38	58	
15	0	0	0	0	508	508	0	584	38	58	
0	0	0	0	0	509	507	0	579	38	57	
1	0	0	0	0	512	508	0	559	38	55	
2	0	0	0	0	508	510	0	536	38	54	
3	0	0	0	0	512	510	0	512	38	54	
4	0	0	0	0	508	510	0	501	38	55	
5	0	0	0	0	508	510	0	500	38	57	
6	0	0	0	0	508	509	0	500	38	58	
7	0	0	0	0	508	509	0	509	38	58	
8	0	0	0	0	510	508	0	507	38	57	
9	0	0	0	0	508	507	0	497	38	55	
10	0	0	0	0	509	505	0	490	38	54	
11	0	0	0	0	507	507	0	483	38	54	
12	0	0	0	0	508	508	0	476	38	55	
13	0	0	0	0	511	508	0	487	38	56	
14	0	0	0	0	508	507	0	497	38	57	
15	0	0	0	0	509	507	0	508	38	58	
0	0	0	0	0	509	506	0	515	38	57	
1	0	0	0	0	508	508	0	527	38	56	
2	0	0	0	0	510	509	0	559	38	54	
3	0	0	0	0	505	509	0	564	38	53	
4	0	0	0	0	508	509	0	573	38	54	
5	0	0	0	0	508	508	0	570	38	56	
6	0	0	0	0	509	507	0	568	38	57	
7	0	0	0	0	509	507	0	559	38	58	
8	0	0	0	0	510	507	0	551	38	58	
9	0	0	0	0	508	507	0	544	38	56	
10	0	0	0	0	508	506	0	528	38	55	
11	0	0	0	0	510	506	0	525	38	53	
12	0	0	0	0	510	506	0	521	38	54	
13	0	0	0	0	510	507	0	521	38	55	
14	0	0	0	0	509	507	0	518	38	56	
15	0	0	0	0	509	506	0	525	38	57	
0	0	0	0	0	512	506	0	539	38	58	
1	0	0	0	0	511	507	0	531	38	57	
2	0	0	0	0	511	507	0	507	38	55	
3	0	0	0	0	509	506	0	482	38	53	
4	0	0	0	0	509	507	0	476	38	53	
5	0	0	0	0	508	507	0	486	38	54	
6	0	0	0	0	507	508	0	501	38	56	
7	0	0	0	0	508	507	0	515	38	57	
8	0	0	0	0	509	506	0	512	38	57	
9	0	0	0	0	508	505	0	491	38	57	
10	0	0	0	0	508	505	0	485	38	55	
11	0	0	0	0	508	505	0	496	38	54	
12	0	0	0	0	509	507	0	512	38	53	
13	0	0	0	0	510	506	0	508	38	54	
14	0	0	0	0	508	507	0	493	38	55	
15	0	0	0	0	511	507	0	485	38	56	
0	0	0	0	0	510	506	0	480	38	57	
1	0	0	0	0	508	507	0	494	38	57	
2	0	0	0	0	509	506	0	505	38	56	
3	0	0	0	0	508	506	0	504	38	54	
4	0	0	0	0	510	504	0	518	38	53	
5	0	0	0	0	510	504	0	537	38	53	
6	0	0	0	0	508	506	0	555	38	54	
7	0	0	0	0	510	507	0	553	38	56	
8	0	0	0	0	508	507	0	537	38	57	
9	0	0	0	0	510	506	0	534	38	57	
10	0	0	0	0	508	507	0	541	38	56	
11	0	0	0	0	510	507	0	555	38	54	
12	0	0	0	0	508	507	0	572	38	53	
13	0	0	0	0	510	506	0	557	38	53	
14	0	0	0	0	510	505	0	550	38	54	
15	0	0	0	0	508	507	0	536	38	55	
0	0	0	0	0	508	508	0	533	38	56	
1	0	0	0	0	510	507	0	519	38	57	
2	0	0	0	0	510	508	0	491	38	56	
3	0	0	0	0	508	509	0	484	38	55	
4	0	0	0	0	509	509	0	493	38	53	
5	0	0	0	0	511	508	0	506	38	52	
6	0	0	0	0	508	510	0	511	38	53	
7	0	0	0	0	508	511	0	502	38	55	
8	0	0	0	0	508	511	0	504	38	56	
9	0	0	0	0	508	510	0	495	38	57	
10	0	0	0	0	508	509	0	482	38	56	
11	0	0	0	0	509	509	0	461	38	55	
12	0	0	0	0	508	508	0	438	38	53	
13	0	0	0	0	510	508	0	436	38	52	
14	0	0	0	0	509	506	0	437	38	52	
15	0	0	0	0	506	507	0	445	38	54	
0	0	0	0	0	509	509	0	450	38	55	
1	0	0	0	0	509	510	0	453	38	56	
2	0	0	0	0	509	509	0	456	38	56	
3	0	0	0	0	511	508	0	477	38	55	
4	0	0	0	0	510	509	0	507	38	53	
5	0	0	0	0	509	508	0	532	38	52	
6	0	0	0	0	510	509	0	547	38	52	
7	0	0	0	0	510	509	0	565	38	53	
8	0	0	0	0	508	509	0	575	38	54	
9	0	0	0	0	509	508	0	577	38	55	
10	0	0	0	0	510	507	0	568	38	56	
11	0	0	0	0	509	506	0	565	38	55	
12	0	0	0	0	508	507	0	560	38	54	
13	0	0	0	0	507	506	0	569	38	52	
14	0	0	0	0	508	506	0	572	38	51	
15	0	0	0	0	510	507	0	567	38	52	
0	0	0	0	0	510	507	0	545	38	54	
1	0	0	0	0	508	508	0	530	38	55	
2	0	0	0	0	508	508	0	524	38	56	
3	0	0	0	0	509	509	0	525	38	56	
4	0	0	0	0	509	509	0	532	38	54	
5	0	0	0	0	510	509	0	534	38	52	
6	0	0	0	0	509	509	0	538	38	51	
7	0	0	0	0	510	508	0	542	38	52	
8	0	0	0	0	508	507	0	536	38	53	
9	0	0	0	0	511	506	0	534	38	54	
10	0	0	0	0	512	505	0	535	38	55	
11	0	0	0	0	510	505	0	531	38	56	
12	0	0	0	0	510	505	0	522	38	55	
13	0	0	0	0	507	504	0	498	38	53	
14	0	0	0	0	508	505	0	472	38	51	
15	0	0	0	0	509	506	0	467	38	51	
0	0	0	0	0	508	506	0	491	38	53	
1	0	0	0	0	508	504	0	524	38	54	
2	0	0	0	0	508	506	0	546	38	55	
3	0	0	0	0	508	506	0	549	38	56	
4	0	0	0	0	511	506	0	531	38	55	
5	0	0	0	0	509	507	0	512	38	54	
6	0	0	0	0	510	507	0	502	38	52	
7	0	0	0	0	510	508	0	488	38	51	
8	0	0	0	0	510	508	0	483	38	52	
9	0	0	0	0	508	509	0	477	38	54	
10	0	0	0	0	507	509	0	477	38	55	
11	0	0	0	0	511	509	0	483	38	56	
12	0	0	0	0	507	509	0	491	38	56	
13	0	0	0	0	509	507	0	492	38	54	
14	0	0	0	0	509	507	0	488	38	52	
15	0	0	0	0	509	508	0	494	38	51	
0	0	0	0	0	508	509	0	492	38	52	
1	0	0	0	0	508	508	0	491	38	53	
2	0	0	0	0	510	508	0	489	38	55	
3	0	0	0	0	509	507	0	489	38	56	
4	0	0	0	0	510	505	0	507	38	56	
5	0	0	0	0	511	505	0	521	38	55	
6	0	0	0	0	510	506	0	514	38	53	
7	0	0	0	0	508	507	0	489	38	51	
8	0	0	0	0	509	505	0	472	38	51	
9	0	0	0	0	509	505	0	475	38	53	
10	0	0	0	0	508	506	0	488	38	54	
11	0	0	0	0	509	506	0	494	38	55	
12	0	0	0	0	508	508	0	485	38	56	
13	0	0	0	0	509	508	0	482	38	55	
14	0	0	0	0	511	507	0	496	38	53	
15	0	0	0	0	511	508	0	504	38	52	
0	0	0	0	0	510	507	0	503	38	51	
1	0	0	0	0	509	508	0	492	38	52	
2	0	0	0	0	510	507	0	486	38	54	
3	0	0	0	0	508	507	0	478	38	55	
4	0	0	0	0	509	506	0	463	38	56	
5	0	0	0	0	510	507	0	465	38	55	
6	0	0	0	0	508	508	0	466	38	54	
7	0	0	0	0	510	509	0	464	38	52	
8	0	0	0	0	509	509	0	474	38	51	
9	0	0	0	0	510	509	0	492	38	52	
10	0	0	0	0	510	508	0	505	38	53	
11	0	0	0	0	508	508	0	501	38	55	
12	0	0	0	0	509	508	0	491	38	56	
13	0	0	0	0	511	508	0	500	38	56	
14	0	0	0	0	510	510	0	515	38	55	
15	0	0	0	0	511	509	0	528	38	53	
0	0	0	0	0	507	511	0	540	38	52	
1	0	0	0	0	508	509	0	551	38	52	
2	0	0	0	0	508	510	0	566	38	53	
3	0	0	0	0	510	511	0	570	38	54	
4	0	0	0	0	509	512	0	556	38	55	
5	0	0	0	0	510	512	0	551	38	56	
6	0	0	0	0	509	515	0	563	38	55	
7	0	0	0	0	509	513	0	576	38	54	
8	0	0	0	0	509	511	0	575	38	52	
9	0	0	0	0	508	510	0	575	38	51	
10	0	0	0	0	510	508	0	565	38	52	
11	0	0	0	0	510	508	0	548	38	54	
12	0	0	0	0	508	507	0	543	38	55	
13	0	0	0	0	510	509	0	526	38	56	
14	0	0	0	0	509	509	0	479	38	56	
15	0	0	0	0	509	509	0	454	38	54	
0	0	0	0	0	509	510	0	446	38	52	
1	0	0	0	0	509	509	0	457	38	51	
2	0	0	0	0	508	510	0	462	38	52	
3	0	0	0	0	508	509	0	462	38	54	
4	0	0	0	0	508	509	0	470	39	55	
5	0	0	0	0	509	508	0	472	38	56	
6	0	0	0	0	508	508	0	477	38	56	
7	0	0	0	0	509	508	0	488	38	55	
8	0	0	0	0	509	510	0	495	38	53	
9	0	0	0	0	509	512	0	500	38	52	
10	0	0	0	0	510	510	0	496	38	52	
11	0	0	0	0	508	510	0	503	38	53	
12	0	0	0	0	510	512	0	508	38	55	
13	0	0	0	0	508	510	0	507	38	56	
14	0	0	0	0	506	511	0	511	38	56	
15	0	0	0	0	509	511	0	517	38	55	
0	0	0	0	0	510	511	0	519	38	54	
1	0	0	0	0	509	510	0	506	38	52	
2	0	0	0	0	509	509	0	499	38	52	
3	0	0	0	0	511	510	0	504	38	53	
4	0	0	0	0	510	510	0	496	38	54	
5	0	0	0	0	509	510	0	492	38	56	
6	0	0	0	0	506	510	0	502	38	56	
7	0	0	0	0	508	509	0	489	38	56	
8	0	0	0	0	507	508	0	500	38	55	
9	0	0	0	0	509	508	0	508	38	53	
10	0	0	0	0	510	508	0	515	38	52	
11	0	0	0	0	508	508	0	510	38	53	
12	0	0	0	0	509	509	0	501	38	54	
13	0	0	0	0	511	508	0	510	38	55	
14	0	0	0	0	509	506	0	525	38	56	
15	0	0	0	0	508	508	0	542	38	56	
0	0	0	0	0	509	507	0	550	38	55	
1	0	0	0	0	512	508	0	540	38	54	
2	0	0	0	0	508	508	0	524	38	52	
3	0	0	0	0	510	507	0	519	38	52	
4	0	0	0	0	507	508	0	530	38	54	
5	0	0	0	0	509	509	0	537	38	55	
6	0	0	0	0	509	507	0	535	38	56	
7	0	0	0	0	512	508	0	534	38	57	
8	0	0	0	0	507	509	0	529	38	56	
9	0	0	0	0	511	511	0	535	38	54	
10	0	0	0	0	509	511	0	537	38	53	
11	0	0	0	0	508	510	0	531	38	52	
12	0	0	0	0	510	510	0	536	38	53	
13	0	0	0	0	511	508	0	549	38	55	
14	0	0	0	0	509	508	0	561	38	56	
15	0	0	0	0	508	510	0	568	38	57	
0	0	0	0	0	508	510	0	564	38	56	
1	0	0	0	0	508	510	0	563	38	55	
2	0	0	0	0	509	508	0	573	38	53	
3	0	0	0	0	508	508	0	582	38	52	
4	0	0	0	0	511	508	0	567	38	53	
5	0	0	0	0	506	508	0	552	38	54	
6	0	0	0	0	507	508	0	547	38	56	
7	0	0	0	0	509	508	0	547	38	56	
8	0	0	0	0	508	508	0	556	38	57	
9	0	0	0	0	507	507	0	576	38	55	
10	0	0	0	0	508	508	0	583	38	54	
11	0	0	0	0	508	509	0	575	38	52	
12	0	0	0	0	508	508	0	561	38	53	
13	0	0	0	0	508	508	0	551	38	54	
14	0	0	0	0	510	509	0	536	38	55	
15	0	0	0	0	511	508	0	520	38	56	
0	0	0	0	0	509	508	0	495	38	57	
1	0	0	0	0	510	509	0	472	38	56	
2	0	0	0	0	510	508	0	472	38	54	
3	0	0	0	0	511	507	0	470	38	53	
4	0	0	0	0	508	505	0	476	38	52	
5	0	0	0	0	510	506	0	486	38	54	
6	0	0	0	0	508	506	0	481	38	55	
7	0	0	0	0	510	506	0	484	38	56	
8	0	0	0	0	511	507	0	492	38	57	
9	0	0	0	0	509	505	0	493	38	56	
10	0	0	0	0	507	505	0	482	38	55	
11	0	0	0	0	508	505	0	459	38	53	
12	0	0	0	0	512	506	0	446	38	52	
13	0	0	0	0	509	506	0	457	38	53	
14	0	0	0	0	507	507	0	474	38	54	
15	0	0	0	0	508	508	0	482	38	56	
0	0	0	0	0	509	508	0	473	38	56	
1	0	0	0	0	509	506	0	483	38	56	
2	0	0	0	0	505	506	0	503	38	55	
3	0	0	0	0	508	507	0	519	38	54	
4	0	0	0	0	510	508	0	522	38	52	
5	0	0	0	0	508	507	0	507	38	53	
6	0	0	0	0	510	505	0	499	38	54	
7	0	0	0	0	510	508	0	509	38	55	
8	0	0	0	0	511	509	0	523	38	56	
9	0	0	0	0	508	507	0	518	38	56	
10	0	0	0	0	509	504	0	487	38	56	
11	0	0	0	0	510	505	0	473	38	54	
12	0	0	0	0	508	506	0	478	38	52	
13	0	0	0	0	509	506	0	496	38	52	
14	0	0	0	0	510	506	0	499	38	53	
15	0	0	0	0	508	504	0	493	38	55	
0	0	0	0	0	510	505	0	484	38	56	
1	0	0	0	0	509	507	0	487	38	56	
2	0	0	0	0	508	508	0	493	38	56	
3	0	0	0	0	510	509	0	484	38	54	
4	0	0	0	0	510	510	0	472	38	53	
5	0	0	0	0	510	510	0	463	38	52	
6	0	0	0	0	510	509	0	460	38	53	
7	0	0	0	0	507	507	0	464	38	54	
8	0	0	0	0	508	507	0	457	38	55	
9	0	0	0	0	509	507	0	454	38	56	
10	0	0	0	0	510	506	0	457	38	56	
11	0	0	0	0	509	507	0	449	38	55	
12	0	0	0	0	508	505	0	439	38	53	
13	0	0	0	0	509	506	0	405	38	52	
14	0	0	0	0	508	508	0	382	38	52	
15	0	0	0	0	510	508	0	385	38	54	
0	0	0	0	0	510	506	0	396	38	55	
1	0	0	0	0	509	508	0	406	38	56	
2	0	0	0	0	509	507	0	411	38	56	
3	0	0	0	0	509	508	0	415	38	55	
4	0	0	0	0	507	508	0	422	38	54	
5	0	0	0	0	508	509	0	431	38	52	
6	0	0	0	0	509	510	0	456	38	52	
7	0	0	0	0	509	510	0	465	38	53	
8	0	0	0	0	509	510	0	458	38	54	
9	0	0	0	0	509	509	0	453	38	55	
10	0	0	0	0	508	510	0	460	38	56	
11	0	0	0	0	510	511	0	475	38	55	
12	0	0	0	0	508	510	0	478	38	54	
13	0	0	0	0	509	509	0	479	38	52	
14	0	0	0	0	507	508	0	453	38	52	
15	0	0	0	0	507	509	0	451	38	53	
0	0	0	0	0	505	508	0	449	38	54	
1	0	0	0	0	511	508	0	446	38	55	
2	0	0	0	0	509	508	0	446	38	56	
3	0	0	0	0	508	506	0	447	38	56	
4	0	0	0	0	509	506	0	442	38	55	
5	0	0	0	0	508	506	0	438	38	53	
6	0	0	0	0	509	508	0	454	38	52	
7	0	0	0	0	509	506	0	472	38	52	
8	0	0	0	0	509	508	0	487	38	53	
9	0	0	0	0	508	507	0	493	38	55	
10	0	0	0	0	511	507	0	492	38	55	
11	0	0	0	0	510	507	0	515	38	56	
12	0	0	0	0	511	508	0	523	38	55	
13	0	0	0	0	510	507	0	548	38	53	
14	0	0	0	0	509	508	0	544	38	52	
15	0	0	0	0	508	506	0	523	38	52	
0	0	0	0	0	510	507	0	521	38	53	
1	0	0	0	0	508	508	0	542	38	54	
2	0	0	0	0	508	508	0	577	38	55	
3	0	0	0	0	510	509	0	607	38	56	
4	0	0	0	0	508	508	0	616	38	55	
5	0	0	0	0	511	507	0	604	38	54	
6	0	0	0	0	511	508	0	577	38	52	
7	0	0	0	0	507	508	0	567	38	52	
8	0	0	0	0	508	507	0	566	38	52	
9	0	0	0	0	508	508	0	566	38	54	
10	0	0	0	0	509	507	0	562	38	55	
11	0	0	0	0	509	505	0	558	38	56	
12	0	0	0	0	510	506	0	560	38	55	
13	0	0	0	0	511	505	0	556	38	54	
14	0	0	0	0	509	504	0	541	38	53	
15	0	0	0	0	508	503	0	519	38	52	
0	0	0	0	0	508	505	0	500	38	52	
1	0	0	0	0	509	506	0	483	38	53	
2	0	0	0	0	511	508	0	484	38	54	
3	0	0	0	0	508	508	0	502	38	55	
4	0	0	0	0	508	507	0	498	38	56	
5	0	0	0	0	509	508	0	488	38	55	
6	0	0	0	0	508	508	0	478	38	53	
7	0	0	0	0	510	508	0	470	38	52	
8	0	0	0	0	508	508	0	474	38	52	
9	0	0	0	0	509	508	0	478	38	53	
10	0	0	0	0	507	509	0	481	38	54	
11	0	0	0	0	507	509	0	504	38	55	
12	0	0	0	0	510	510	0	533	38	56	
13	0	0	0	0	510	509	0	558	38	55	
14	0	0	0	0	508	508	0	551	38	54	
15	0	0	0	0	510	508	0	539	38	52	
0	0	0	0	0	509	510	0	522	38	52	
1	0	0	0	0	509	511	0	531	38	52	
2	0	0	0	0	508	510	0	532	38	54	
3	0	0	0	0	510	508	0	517	38	55	
4	0	0	0	0	506	509	0	502	38	55	
5	0	0	0	0	508	509	0	507	38	55	
6	0	0	0	0	510	508	0	512	38	54	
7	0	0	0	0	510	507	0	512	39	52	
8	0	0	0	0	509	507	0	509	38	52	
9	0	0	0	0	508	507	0	510	38	52	
10	0	0	0	0	512	506	0	521	38	53	
11	0	0	0	0	510	507	0	536	38	54	
12	0	0	0	0	509	507	0	547	38	55	
13	0	0	0	0	511	505	0	554	38	55	
14	0	0	0	0	510	506	0	552	38	55	
15	0	0	0	0	510	507	0	549	38	53	
0	0	0	0	0	510	507	0	542	38	52	
1	0	0	0	0	508	508	0	541	38	52	
2	0	0	0	0	508	509	0	542	38	53	
3	0	0	0	0	508	509	0	526	38	54	
4	0	0	0	0	510	508	0	514	38	55	
5	0	0	0	0	511	508	0	509	38	55	
6	0	0	0	0	509	509	0	507	38	55	
7	0	0	0	0	509	510	0	497	38	54	
8	0	0	0	0	511	509	0	495	38	52	
9	0	0	0	0	509	507	0	507	38	51	
10	0	0	0	0	509	508	0	506	38	52	
11	0	0	0	0	509	508	0	491	38	54	
12	0	0	0	0	509	508	0	465	38	55	
13	0	0	0	0	508	508	0	456	38	55	
14	0	0	0	0	510	507	0	480	38	55	
15	0	0	0	0	510	506	0	509	38	54	
0	0	0	0	0	508	505	0	536	38	52	
1	0	0	0	0	509	505	0	546	38	51	
2	0	0	0	0	510	505	0	541	38	52	
3	0	0	0	0	507	506	0	547	38	53	
4	0	0	0	0	508	505	0	549	39	54	
5	0	0	0	0	508	505	0	543	38	55	
6	0	0	0	0	509	506	0	530	38	55	
7	0	0	0	0	509	507	0	529	38	54	
8	0	0	0	0	508	508	0	517	38	53	
9	0	0	0	0	509	508	0	512	38	52	
10	0	0	0	0	507	507	0	506	38	52	
11	0	0	0	0	508	506	0	476	38	53	
12	0	0	0	0	509	506	0	442	38	54	
13	0	0	0	0	507	505	0	435	38	55	
14	0	0	0	0	510	506	0	436	38	55	
15	0	0	0	0	508	507	0	444	38	55	
0	0	0	0	0	509	508	0	453	38	53	
1	0	0	0	0	510	508	0	457	38	52	
2	0	0	0	0	508	506	0	462	38	51	
3	0	0	0	0	509	505	0	469	38	52	
4	0	0	0	0	508	503	0	489	38	54	
5	0	0	0	0	508	504	0	480	38	55	
6	0	0	0	0	509	504	0	477	38	55	
7	0	0	0	0	509	505	0	492	38	55	
8	0	0	0	0	510	505	0	507	38	54	
9	0	0	0	0	510	506	0	515	38	52	
10	0	0	0	0	510	505	0	511	38	51	
11	0	0	0	0	510	507	0	496	38	52	
12	0	0	0	0	511	508	0	498	38	53	
13	0	0	0	0	510	510	0	512	38	54	
14	0	0	0	0	510	510	0	510	38	55	
15	0	0	0	0	511	511	0	498	38	55	
0	0	0	0	0	509	509	0	491	38	54	
1	0	0	0	0	509	508	0	507	38	53	
2	0	0	0	0	510	507	0	516	38	51	
3	0	0	0	0	507	508	0	518	38	52	
4	0	0	0	0	509	508	0	513	38	53	
5	0	0	0	0	509	508	0	512	38	54	
6	0	0	0	0	509	508	0	528	38	55	
7	0	0	0	0	509	508	0	539	38	55	
8	0	0	0	0	508	508	0	542	38	55	
9	0	0	0	0	508	508	0	521	38	53	
10	0	0	0	0	510	508	0	497	38	52	
11	0	0	0	0	507	509	0	494	38	51	
12	0	0	0	0	507	509	0	501	38	52	
13	0	0	0	0	509	509	0	513	38	53	
14	0	0	0	0	508	507	0	518	38	54	
15	0	0	0	0	509	507	0	516	38	55	
0	0	0	0	0	509	505	0	519	38	55	
1	0	0	0	0	510	505	0	519	38	54	
2	0	0	0	0	511	507	0	516	38	52	
3	0	0	0	0	510	509	0	504	38	51	
4	0	0	0	0	510	508	0	483	38	52	
5	0	0	0	0	511	507	0	471	38	53	
6	0	0	0	0	511	508	0	448	38	54	
7	0	0	0	0	509	508	0	435	38	55	
8	0	0	0	0	510	508	0	423	38	55	
9	0	0	0	0	510	508	0	425	38	54	
10	0	0	0	0	508	508	0	435	38	53	
11	0	0	0	0	507	507	0	446	38	51	
12	0	0	0	0	507	508	0	458	38	51	
13	0	0	0	0	505	509	0	472	38	53	
14	0	0	0	0	507	507	0	474	38	54	
15	0	0	0	0	508	505	0	484	38	55	
0	0	0	0	0	511	504	0	501	38	55	
1	0	0	0	0	509	504	0	522	38	54	
2	0	0	0	0	509	506	0	528	38	53	
3	0	0	0	0	508	507	0	525	38	52	
4	0	0	0	0	509	508	0	541	38	51	
5	0	0	0	0	508	508	0	546	38	52	
6	0	0	0	0	508	508	0	552	38	53	
7	0	0	0	0	510	509	0	552	38	54	
8	0	0	0	0	511	508	0	546	38	55	
9	0	0	0	0	508	508	0	551	38	55	
10	0	0	0	0	510	508	0	542	38	53	
11	0	0	0	0	510	508	0	531	38	52	
12	0	0	0	0	510	508	0	520	38	51	
13	0	0	0	0	511	507	0	505	38	52	
14	0	0	0	0	512	508	0	521	38	53	
15	0	0	0	0	509	509	0	531	38	54	
0	0	0	0	0	509	508	0	536	38	55	
1	0	0	0	0	511	508	0	527	38	55	
2	0	0	0	0	508	508	0	506	38	54	
3	0	0	0	0	509	507	0	505	38	52	
4	0	0	0	0	510	507	0	508	38	51	
5	0	0	0	0	508	507	0	517	38	51	
6	0	0	0	0	508	508	0	528	38	52	
7	0	0	0	0	511	508	0	527	38	54	
8	0	0	0	0	507	508	0	520	38	55	
9	0	0	0	0	508	508	0	525	38	55	
10	0	0	0	0	507	507	0	541	38	54	
11	0	0	0	0	508	508	0	547	38	53	
12	0	0	0	0	509	509	0	527	38	51	
13	0	0	0	0	509	509	0	524	38	51	
14	0	0	0	0	509	510	0	523	38	52	
15	0	0	0	0	509	510	0	526	38	53	
0	0	0	0	0	510	509	0	527	38	54	
1	0	0	0	0	508	510	0	513	38	55	
2	0	0	0	0	510	510	0	516	38	55	
3	0	0	0	0	509	511	0	515	38	53	
4	0	0	0	0	509	511	0	513	38	52	
5	0	0	0	0	511	509	0	501	38	51	
6	0	0	0	0	510	506	0	491	38	51	
7	0	0	0	0	509	505	0	489	38	53	
8	0	0	0	0	509	507	0	499	38	54	
9	0	0	0	0	510	506	0	510	38	55	
10	0	0	0	0	509	505	0	500	38	55	
11	0	0	0	0	511	505	0	503	38	54	
12	0	0	0	0	509	504	0	514	38	52	
13	0	0	0	0	510	505	0	517	38	51	
14	0	0	0	0	510	507	0	533	38	51	
15	0	0	0	0	510	507	0	546	38	52	
0	0	0	0	0	510	507	0	551	38	53	
1	0	0	0	0	511	506	0	559	38	54	
2	0	0	0	0	508	506	0	572	38	55	
3	0	0	0	0	509	505	0	566	38	54	
4	0	0	0	0	509	504	0	551	38	53	
5	0	0	0	0	508	504	0	516	38	51	
6	0	0	0	0	510	504	0	500	38	51	
7	0	0	0	0	511	505	0	499	38	52	
8	0	0	0	0	510	505	0	494	38	53	
9	0	0	0	0	508	505	0	487	38	54	
10	0	0	0	0	510	506	0	474	38	55	
11	0	0	0	0	508	505	0	463	38	54	
12	0	0	0	0	510	504	0	455	38	53	
13	0	0	0	0	510	504	0	463	38	52	
14	0	0	0	0	509	505	0	467	38	51	
15	0	0	0	0	508	506	0	454	38	51	
0	0	0	0	0	508	506	0	460	38	53	
1	0	0	0	0	510	506	0	468	38	54	
2	0	0	0	0	509	508	0	478	38	54	
3	0	0	0	0	509	508	0	497	38	55	
4	0	0	0	0	508	509	0	513	38	54	
5	0	0	0	0	508	509	0	524	38	52	
6	0	0	0	0	508	509	0	532	38	51	
7	0	0	0	0	507	510	0	529	38	51	
8	0	0	0	0	509	509	0	523	38	52	
9	0	0	0	0	508	509	0	516	38	53	
10	0	0	0	0	508	509	0	513	38	54	
11	0	0	0	0	510	508	0	518	38	55	
12	0	0	0	0	508	508	0	520	38	54	
13	0	0	0	0	509	509	0	509	38	52	
14	0	0	0	0	510	510	0	504	38	51	
15	0	0	0	0	508	509	0	514	38	51	
0	0	0	0	0	510	510	0	525	38	52	
1	0	0	0	0	508	509	0	524	38	53	
2	0	0	0	0	509	508	0	523	38	54	
3	0	0	0	0	505	506	0	525	38	55	
4	0	0	0	0	510	506	0	536	38	54	
5	0	0	0	0	510	506	0	536	38	53	
6	0	0	0	0	510	507	0	527	38	51	
7	0	0	0	0	510	508	0	520	38	51	
8	0	0	0	0	509	508	0	506	38	51	
9	0	0	0	0	509	507	0	507	38	53	
10	0	0	0	0	509	510	0	515	38	54	
11	0	0	0	0	509	510	0	511	38	54	
12	0	0	0	0	509	511	0	501	38	54	
13	0	0	0	0	508	509	0	479	38	53	
14	0	0	0	0	509	510	0	458	38	52	
15	0	0	0	0	510	510	0	457	38	51	
0	0	0	0	0	509	508	0	463	38	51	
1	0	0	0	0	510	507	0	465	38	52	
2	0	0	0	0	509	506	0	472	38	53	
3	0	0	0	0	511	508	0	481	38	54	
4	0	0	0	0	510	507	0	498	38	54	
5	0	0	0	0	509	506	0	502	38	54	
6	0	0	0	0	509	507	0	509	38	52	
7	0	0	0	0	508	508	0	523	38	51	
8	0	0	0	0	510	510	0	541	38	51	
9	0	0	0	0	510	508	0	545	38	52	
10	0	0	0	0	508	509	0	543	38	53	
11	0	0	0	0	509	507	0	530	38	54	
12	0	0	0	0	507	509	0	505	38	54	
13	0	0	0	0	511	507	0	487	38	54	
14	0	0	0	0	510	508	0	482	38	53	
15	0	0	0	0	510	508	0	490	38	51	
0	0	0	0	0	508	508	0	494	38	51	
1	0	0	0	0	509	507	0	483	38	51	
2	0	0	0	0	509	507	0	479	38	52	
3	0	0	0	0	511	507	0	483	38	54	
4	0	0	0	0	508	508	0	499	38	54	
5	0	0	0	0	508	509	0	522	38	54	
6	0	0	0	0	511	509	0	548	38	53	
7	0	0	0	0	509	508	0	581	38	52	
8	0	0	0	0	510	505	0	595	38	51	
9	0	0	0	0	512	505	0	582	38	51	
10	0	0	0	0	507	506	0	572	38	52	
11	0	0	0	0	509	505	0	565	38	53	
12	0	0	0	0	507	506	0	575	38	54	
13	0	0	0	0	507	508	0	593	38	54	
14	0	0	0	0	510	508	0	610	38	54	
15	0	0	0	0	510	506	0	624	38	52	
0	0	0	0	0	510	507	0	635	38	51	
1	0	0	0	0	508	508	0	636	38	51	
2	0	0	0	0	506	507	0	638	38	52	
3	0	0	0	0	508	507	0	637	38	53	
4	0	0	0	0	507	508	0	617	38	54	
5	0	0	0	0	508	508	0	581	38	54	
6	0	0	0	0	509	508	0	559	38	54	
7	0	0	0	0	510	509	0	553	38	53	
8	0	0	0	0	512	511	0	551	38	51	
9	0	0	0	0	512	511	0	544	38	50	
10	0	0	0	0	509	511	0	545	38	51	
11	0	0	0	0	508	510	0	546	38	52	
12	0	0	0	0	510	508	0	556	38	53	
13	0	0	0	0	510	509	0	538	38	54	
14	0	0	0	0	511	511	0	520	38	54	
15	0	0	0	0	510	511	0	511	38	53	
0	0	0	0	0	508	509	0	507	38	51	
1	0	0	0	0	509	510	0	511	38	50	
2	0	0	0	0	507	509	0	520	38	51	
3	0	0	0	0	507	508	0	538	38	52	
4	0	0	0	0	510	508	0	544	38	53	
5	0	0	0	0	509	508	0	562	38	54	
6	0	0	0	0	510	510	0	579	38	54	
7	0	0	0	0	510	511	0	589	38	53	
8	0	0	0	0	510	511	0	551	38	52	
9	0	0	0	0	509	513	0	533	38	50	
10	0	0	0	0	510	511	0	528	38	50	
11	0	0	0	0	510	511	0	529	38	51	
12	0	0	0	0	506	511	0	529	38	53	
13	0	0	0	0	507	511	0	519	38	54	
14	0	0	0	0	509	511	0	516	38	54	
15	0	0	0	0	508	511	0	524	38	54	
0	0	0	0	0	508	512	0	528	38	52	
1	0	0	0	0	511	513	0	539	38	51	
2	0	0	0	0	507	512	0	531	38	50	
3	0	0	0	0	509	512	0	513	38	51	
4	0	0	0	0	509	512	0	519	38	52	
5	0	0	0	0	508	511	0	524	38	53	
6	0	0	0	0	509	510	0	528	38	54	
7	0	0	0	0	510	509	0	526	38	54	
8	0	0	0	0	510	508	0	508	38	53	
9	0	0	0	0	510	508	0	499	38	51	
10	0	0	0	0	511	511	0	492	38	50	
11	0	0	0	0	509	511	0	488	38	50	
12	0	0	0	0	508	511	0	481	38	52	
13	0	0	0	0	506	511	0	483	38	53	
14	0	0	0	0	505	511	0	502	38	54	
15	0	0	0	0	505	510	0	521	38	54	
0	0	0	0	0	507	509	0	530	38	53	
1	0	0	0	0	508	510	0	519	38	52	
2	0	0	0	0	508	511	0	502	38	50	
3	0	0	0	0	508	509	0	518	38	50	
4	0	0	0	0	509	509	0	534	38	51	
5	0	0	0	0	510	509	0	553	38	52	
6	0	0	0	0	509	509	0	560	38	53	
7	0	0	0	0	510	509	0	540	38	54	
8	0	0	0	0	509	509	0	531	38	53	
9	0	0	0	0	508	508	0	508	38	52	
10	0	0	0	0	510	508	0	492	38	51	
11	0	0	0	0	512	509	0	477	38	50	
12	0	0	0	0	510	507	0	473	38	51	
13	0	0	0	0	509	506	0	486	38	52	
14	0	0	0	0	510	506	0	510	38	53	
15	0	0	0	0	509	507	0	494	38	54	
0	0	0	0	0	507	506	0	485	38	54	
1	0	0	0	0	510	507	0	472	38	53	
2	0	0	0	0	509	507	0	462	38	51	
3	0	0	0	0	508	507	0	451	38	50	
4	0	0	0	0	508	507	0	444	38	50	
5	0	0	0	0	508	507	0	455	38	52	
6	0	0	0	0	512	508	0	473	38	53	
7	0	0	0	0	509	508	0	488	38	54	
8	0	0	0	0	510	508	0	500	38	54	
9	0	0	0	0	511	510	0	510	38	53	
10	0	0	0	0	511	509	0	519	38	51	
11	0	0	0	0	508	507	0	527	38	50	
12	0	0	0	0	512	506	0	523	38	50	
13	0	0	0	0	511	506	0	503	38	51	
14	0	0	0	0	510	508	0	496	38	52	
15	0	0	0	0	510	510	0	514	38	53	
0	0	0	0	0	508	509	0	535	38	54	
1	0	0	0	0	507	509	0	552	38	53	
2	0	0	0	0	507	511	0	561	38	52	
3	0	0	0	0	509	510	0	546	38	50	
4	0	0	0	0	507	509	0	524	38	50	
5	0	0	0	0	510	508	0	503	38	51	
6	0	0	0	0	509	507	0	496	38	52	
7	0	0	0	0	513	507	0	478	38	53	
8	0	0	0	0	511	508	0	471	38	54	
9	0	0	0	0	510	508	0	472	38	53	
10	0	0	0	0	507	509	0	468	38	52	
11	0	0	0	0	508	510	0	475	38	51	
12	0	0	0	0	509	511	0	481	38	50	
13	0	0	0	0	508	511	0	486	38	50	
14	0	0	0	0	507	511	0	494	38	51	
15	0	0	0	0	506	510	0	501	38	53	
0	0	0	0	0	509	509	0	519	38	53	
1	0	0	0	0	510	508	0	524	38	54	
2	0	0	0	0	510	508	0	525	38	53	
3	0	0	0	0	510	508	0	524	38	51	
4	0	0	0	0	509	508	0	516	38	50	
5	0	0	0	0	508	509	0	521	38	50	
6	0	0	0	0	510	509	0	519	38	51	
7	0	0	0	0	510	509	0	516	38	52	
8	0	0	0	0	511	507	0	515	39	53	
9	0	0	0	0	509	508	0	497	38	54	
10	0	0	0	0	510	508	0	494	38	53	
11	0	0	0	0	510	509	0	491	38	52	
12	0	0	0	0	507	507	0	488	38	50	
13	0	0	0	0	510	507	0	487	38	50	
14	0	0	0	0	510	507	0	476	38	50	
15	0	0	0	0	506	507	0	464	38	52	
0	0	0	0	0	508	508	0	454	38	53	
1	0	0	0	0	510	508	0	455	38	53	
2	0	0	0	0	507	510	0	450	38	53	
3	0	0	0	0	509	510	0	432	38	52	
4	0	0	0	0	507	510	0	428	38	51	
5	0	0	0	0	507	509	0	429	38	50	
6	0	0	0	0	510	507	0	429	38	50	
7	0	0	0	0	508	507	0	429	38	51	
8	0	0	0	0	506	508	0	434	38	52	
9	0	0	0	0	508	507	0	453	38	53	
10	0	0	0	0	508	509	0	456	38	53	
11	0	0	0	0	507	508	0	453	38	52	
12	0	0	0	0	511	507	0	452	38	51	
13	0	0	0	0	510	507	0	459	38	50	
14	0	0	0	0	511	507	0	467	39	50	
15	0	0	0	0	510	508	0	478	39	51	
0	0	0	0	0	509	509	0	495	39	52	
1	0	0	0	0	509	510	0	520	39	53	
2	0	0	0	0	508	508	0	535	39	53	
3	0	0	0	0	510	506	0	548	39	53	
4	0	0	0	0	511	504	0	563	39	51	
5	0	0	0	0	510	505	0	563	39	50	
6	0	0	0	0	509	506	0	558	39	49	
7	0	0	0	0	508	505	0	552	39	50	
8	0	0	0	0	506	506	0	551	39	52	
9	0	0	0	0	505	505	0	553	38	53	
10	0	0	0	0	0	483	0	587	38	53	
11	0	0	0	0	0	478	0	652	38	53	
12	0	0	0	0	730	481	0	718	38	52	
13	0	0	0	0	1003	487	0	760	38	50	
14	0	0	0	0	1022	493	0	769	38	49	
15	0	0	0	0	981	498	0	741	38	50	
0	0	0	0	0	898	500	0	713	38	51	
1	0	0	0	0	812	502	0	686	38	52	
2	0	0	0	0	739	505	0	662	38	53	
3	0	0	0	0	673	506	0	617	38	53	
4	0	0	0	0	617	506	0	576	38	52	
5	0	0	0	0	575	506	0	551	38	51	
6	0	0	0	0	543	508	0	524	38	50	
7	0	0	0	0	520	508	0	509	39	50	
8	0	0	0	0	500	508	0	492	39	51	
9	0	0	0	0	485	508	0	464	39	52	
10	0	0	0	0	479	510	0	437	39	53	
11	0	0	0	0	471	510	0	414	39	53	
12	0	0	0	0	469	509	0	419	38	53	
13	0	0	0	0	468	508	0	440	39	51	
14	0	0	0	0	466	510	0	444	38	50	
15	0	0	0	0	466	510	0	434	38	49	
0	0	0	0	0	468	509	0	419	38	50	
1	0	0	0	0	466	509	0	423	39	52	
2	0	0	0	0	466	508	0	436	38	53	
3	0	0	0	0	473	508	0	444	38	53	
4	0	0	0	0	479	510	0	444	39	53	
5	0	0	0	0	482	511	0	433	39	52	
6	0	0	0	0	486	512	0	438	38	50	
7	0	0	0	0	489	511	0	452	38	49	
8	0	0	0	0	491	509	0	461	38	50	
9	0	0	0	0	496	508	0	483	38	51	
