# OpenSignals Text File Format. Version 1
# {"98:D3:61:FD:78:31": {"position": 0, "device": "bitalino_rev", "device name": "98:D3:61:FD:78:31", "device connection": "BTH98:D3:61:FD:78:31", "sampling rate": 1000, "resolution": [4, 1, 1, 1, 1, 10, 10, 10, 10, 6, 6], "firmware version": 1282, "comments": "", "keywords": "", "mode": 0, "sync interval": 2, "date": "2024-4-12", "time": "12:32:39.357", "channels": [1, 2, 3, 4, 5, 6], "sensor": ["RAW", "RAW", "RAW", "RAW", "RAW", "RAW"], "label": ["A1", "A2", "A3", "A4", "A5", "A6"], "column": ["nSeq", "I1", "I2", "O1", "O2", "A1", "A2", "A3", "A4", "A5", "A6"], "special": [{}, {}, {}, {}, {}, {}], "digital IO": [0, 0, 1, 1]}}
# EndOfHeader
0	0	0	0	0	509	510	0	532	39	27	
1	0	0	0	0	509	508	0	503	38	26	
2	0	0	0	0	509	507	0	445	38	25	
3	0	0	0	0	512	509	0	373	39	25	
4	0	0	0	0	509	508	0	303	38	26	
5	0	0	0	0	508	508	0	232	38	28	
6	0	0	0	0	506	508	0	178	38	28	
7	0	0	0	0	509	508	0	143	38	29	
8	0	0	0	0	507	506	0	124	38	28	
9	0	0	0	0	509	508	0	107	38	27	
10	0	0	0	0	510	508	0	89	39	25	
11	0	0	0	0	510	507	0	78	39	25	
12	0	0	0	0	509	508	0	83	39	26	
13	0	0	0	0	509	508	0	92	39	27	
14	0	0	0	0	508	511	0	89	39	28	
15	0	0	0	0	509	512	0	87	38	29	
0	0	0	0	0	512	510	0	82	39	28	
1	0	0	0	0	511	510	0	97	39	27	
2	0	0	0	0	511	511	0	118	39	26	
3	0	0	0	0	509	510	0	128	39	25	
4	0	0	0	0	508	510	0	120	39	26	
5	0	0	0	0	509	510	0	98	39	27	
6	0	0	0	0	508	508	0	87	39	28	
7	0	0	0	0	508	505	0	86	38	29	
8	0	0	0	0	507	506	0	99	38	29	
9	0	0	0	0	509	504	0	103	38	28	
10	0	0	0	0	510	504	0	85	38	26	
11	0	0	0	0	509	505	0	79	38	25	
12	0	0	0	0	508	507	0	101	38	26	
13	0	0	0	0	510	508	0	125	38	27	
14	0	0	0	0	508	507	0	126	38	28	
15	0	0	0	0	508	506	0	112	38	29	
0	0	0	0	0	508	507	0	132	38	29	
1	0	0	0	0	509	509	0	170	38	28	
2	0	0	0	0	510	508	0	196	38	27	
3	0	0	0	0	507	508	0	199	39	26	
4	0	0	0	0	508	508	0	191	38	25	
5	0	0	0	0	511	508	0	195	39	26	
6	0	0	0	0	510	507	0	213	39	28	
7	0	0	0	0	508	508	0	234	38	28	
8	0	0	0	0	509	507	0	256	38	29	
9	0	0	0	0	506	509	0	274	39	29	
10	0	0	0	0	508	509	0	279	38	27	
11	0	0	0	0	508	509	0	267	38	26	
12	0	0	0	0	509	509	0	272	38	26	
13	0	0	0	0	508	509	0	271	38	26	
14	0	0	0	0	508	508	0	272	38	27	
15	0	0	0	0	510	507	0	278	38	28	
0	0	0	0	0	508	508	0	280	38	29	
1	0	0	0	0	510	508	0	288	38	29	
2	0	0	0	0	508	509	0	275	38	28	
3	0	0	0	0	506	510	0	255	38	27	
4	0	0	0	0	507	509	0	247	38	26	
5	0	0	0	0	508	510	0	243	38	26	
6	0	0	0	0	509	511	0	253	38	27	
7	0	0	0	0	508	510	0	243	38	28	
8	0	0	0	0	509	508	0	216	38	29	
9	0	0	0	0	510	508	0	204	38	29	
10	0	0	0	0	509	510	0	199	38	29	
11	0	0	0	0	510	512	0	206	38	27	
12	0	0	0	0	508	510	0	198	38	26	
13	0	0	0	0	508	509	0	185	38	26	
14	0	0	0	0	508	511	0	199	38	27	
15	0	0	0	0	510	511	0	221	38	28	
0	0	0	0	0	508	508	0	250	38	29	
1	0	0	0	0	510	509	0	276	38	29	
2	0	0	0	0	509	508	0	296	38	29	
3	0	0	0	0	510	508	0	299	38	28	
4	0	0	0	0	508	507	0	299	38	26	
5	0	0	0	0	508	505	0	293	38	26	
6	0	0	0	0	509	504	0	280	38	26	
7	0	0	0	0	509	506	0	261	38	28	
8	0	0	0	0	508	505	0	256	38	29	
9	0	0	0	0	509	507	0	263	38	29	
10	0	0	0	0	509	508	0	284	38	29	
11	0	0	0	0	508	508	0	288	38	28	
12	0	0	0	0	509	508	0	295	38	27	
13	0	0	0	0	507	506	0	310	38	26	
14	0	0	0	0	508	506	0	323	38	26	
15	0	0	0	0	508	507	0	336	38	27	
0	0	0	0	0	508	506	0	319	38	28	
1	0	0	0	0	509	508	0	298	38	29	
2	0	0	0	0	511	509	0	302	38	30	
3	0	0	0	0	510	508	0	323	38	29	
4	0	0	0	0	510	509	0	349	38	28	
5	0	0	0	0	510	510	0	372	38	26	
6	0	0	0	0	510	510	0	368	38	26	
7	0	0	0	0	510	510	0	369	38	27	
8	0	0	0	0	509	510	0	373	38	28	
9	0	0	0	0	507	508	0	383	38	29	
10	0	0	0	0	509	508	0	392	38	30	
11	0	0	0	0	508	508	0	386	38	29	
12	0	0	0	0	511	506	0	397	38	28	
13	0	0	0	0	509	507	0	419	38	27	
14	0	0	0	0	509	507	0	432	38	26	
15	0	0	0	0	511	508	0	428	38	27	
0	0	0	0	0	508	507	0	409	38	28	
1	0	0	0	0	510	505	0	409	38	29	
2	0	0	0	0	509	506	0	418	38	30	
3	0	0	0	0	509	506	0	429	38	30	
4	0	0	0	0	508	508	0	443	38	29	
5	0	0	0	0	508	508	0	460	38	27	
6	0	0	0	0	510	509	0	492	38	26	
7	0	0	0	0	508	509	0	506	38	26	
8	0	0	0	0	509	509	0	513	38	27	
9	0	0	0	0	507	507	0	516	38	29	
10	0	0	0	0	508	507	0	521	38	29	
11	0	0	0	0	510	507	0	536	39	30	
12	0	0	0	0	510	508	0	529	38	29	
13	0	0	0	0	508	510	0	523	38	28	
14	0	0	0	0	509	509	0	521	38	26	
15	0	0	0	0	510	510	0	516	38	26	
0	0	0	0	0	509	510	0	508	38	27	
1	0	0	0	0	509	510	0	504	38	28	
2	0	0	0	0	509	509	0	500	38	29	
3	0	0	0	0	510	508	0	493	38	30	
4	0	0	0	0	508	505	0	492	38	29	
5	0	0	0	0	509	504	0	499	38	28	
6	0	0	0	0	507	507	0	508	38	27	
7	0	0	0	0	507	507	0	512	38	26	
8	0	0	0	0	508	507	0	508	38	27	
9	0	0	0	0	509	508	0	486	38	28	
10	0	0	0	0	510	507	0	470	38	29	
11	0	0	0	0	509	508	0	463	38	30	
12	0	0	0	0	510	506	0	472	38	30	
13	0	0	0	0	511	506	0	473	38	29	
14	0	0	0	0	510	505	0	467	38	27	
15	0	0	0	0	510	506	0	472	38	26	
0	0	0	0	0	507	505	0	475	38	26	
1	0	0	0	0	508	508	0	497	38	28	
2	0	0	0	0	508	508	0	470	38	29	
3	0	0	0	0	507	511	0	435	38	29	
4	0	0	0	0	507	511	0	428	38	30	
5	0	0	0	0	512	508	0	435	38	29	
6	0	0	0	0	509	508	0	436	38	28	
7	0	0	0	0	509	508	0	425	38	26	
8	0	0	0	0	509	509	0	424	38	26	
9	0	0	0	0	508	507	0	434	38	27	
10	0	0	0	0	510	507	0	461	38	28	
11	0	0	0	0	508	507	0	484	38	29	
12	0	0	0	0	509	506	0	498	38	30	
13	0	0	0	0	508	507	0	489	38	29	
14	0	0	0	0	508	506	0	492	38	28	
15	0	0	0	0	509	506	0	497	38	27	
0	0	0	0	0	510	508	0	510	38	26	
1	0	0	0	0	511	508	0	511	38	27	
2	0	0	0	0	509	507	0	504	38	28	
3	0	0	0	0	509	510	0	507	38	29	
4	0	0	0	0	509	511	0	508	38	30	
5	0	0	0	0	509	511	0	512	38	30	
6	0	0	0	0	508	512	0	509	38	29	
7	0	0	0	0	508	511	0	496	38	27	
8	0	0	0	0	508	512	0	507	38	26	
9	0	0	0	0	508	511	0	518	38	26	
10	0	0	0	0	511	511	0	535	38	28	
11	0	0	0	0	513	512	0	535	38	29	
12	0	0	0	0	511	511	0	514	38	29	
13	0	0	0	0	510	512	0	503	38	30	
14	0	0	0	0	510	510	0	501	38	29	
15	0	0	0	0	509	509	0	502	38	28	
0	0	0	0	0	508	508	0	511	38	27	
1	0	0	0	0	510	508	0	517	38	26	
2	0	0	0	0	511	507	0	517	38	27	
3	0	0	0	0	508	508	0	525	39	28	
4	0	0	0	0	507	507	0	527	38	29	
5	0	0	0	0	507	506	0	529	38	30	
6	0	0	0	0	509	505	0	529	39	30	
7	0	0	0	0	512	506	0	530	38	28	
8	0	0	0	0	509	508	0	544	38	27	
9	0	0	0	0	509	509	0	557	39	26	
10	0	0	0	0	509	509	0	570	39	27	
11	0	0	0	0	508	508	0	580	38	28	
12	0	0	0	0	508	508	0	595	39	29	
13	0	0	0	0	508	508	0	600	38	30	
14	0	0	0	0	509	508	0	592	38	30	
15	0	0	0	0	509	509	0	589	38	29	
0	0	0	0	0	510	509	0	590	39	27	
1	0	0	0	0	509	510	0	607	38	26	
2	0	0	0	0	511	509	0	613	38	26	
3	0	0	0	0	509	509	0	604	39	28	
4	0	0	0	0	508	509	0	598	38	29	
5	0	0	0	0	509	510	0	576	38	29	
6	0	0	0	0	508	509	0	565	38	30	
7	0	0	0	0	509	509	0	555	38	29	
8	0	0	0	0	510	510	0	542	38	28	
9	0	0	0	0	507	509	0	519	38	27	
10	0	0	0	0	507	509	0	509	38	26	
11	0	0	0	0	509	509	0	511	38	27	
12	0	0	0	0	510	508	0	509	38	28	
13	0	0	0	0	510	508	0	512	38	29	
14	0	0	0	0	509	507	0	502	38	30	
15	0	0	0	0	511	507	0	486	38	30	
0	0	0	0	0	507	507	0	492	38	28	
1	0	0	0	0	508	507	0	490	38	27	
2	0	0	0	0	509	507	0	489	38	26	
3	0	0	0	0	508	507	0	488	38	27	
4	0	0	0	0	509	505	0	488	38	28	
5	0	0	0	0	509	507	0	487	38	29	
6	0	0	0	0	508	507	0	492	38	30	
7	0	0	0	0	511	509	0	489	38	30	
8	0	0	0	0	509	509	0	481	38	29	
9	0	0	0	0	511	508	0	475	38	27	
10	0	0	0	0	508	507	0	492	38	26	
11	0	0	0	0	511	507	0	517	38	26	
12	0	0	0	0	512	506	0	527	38	28	
13	0	0	0	0	509	507	0	525	38	29	
14	0	0	0	0	508	506	0	514	38	29	
15	0	0	0	0	507	505	0	515	38	30	
0	0	0	0	0	510	506	0	516	38	29	
1	0	0	0	0	508	507	0	517	38	28	
2	0	0	0	0	508	507	0	518	38	27	
3	0	0	0	0	509	505	0	516	38	26	
4	0	0	0	0	509	505	0	528	38	27	
5	0	0	0	0	511	504	0	546	38	28	
6	0	0	0	0	509	506	0	562	38	29	
7	0	0	0	0	510	507	0	571	38	30	
8	0	0	0	0	510	509	0	573	38	30	
9	0	0	0	0	508	509	0	588	38	28	
10	0	0	0	0	510	508	0	613	38	27	
11	0	0	0	0	510	508	0	614	38	26	
12	0	0	0	0	509	506	0	615	38	27	
13	0	0	0	0	509	506	0	606	38	28	
14	0	0	0	0	507	505	0	604	38	29	
15	0	0	0	0	509	508	0	604	38	30	
0	0	0	0	0	508	509	0	584	38	30	
1	0	0	0	0	507	508	0	578	38	29	
2	0	0	0	0	509	507	0	566	38	27	
3	0	0	0	0	509	506	0	568	39	26	
4	0	0	0	0	508	506	0	577	38	27	
5	0	0	0	0	508	504	0	579	38	28	
6	0	0	0	0	508	505	0	568	38	29	
7	0	0	0	0	512	505	0	553	38	30	
8	0	0	0	0	510	505	0	551	38	30	
9	0	0	0	0	511	505	0	560	38	29	
10	0	0	0	0	509	505	0	577	38	28	
11	0	0	0	0	509	507	0	584	38	27	
12	0	0	0	0	509	507	0	583	38	26	
13	0	0	0	0	510	507	0	592	38	27	
14	0	0	0	0	508	506	0	596	38	28	
15	0	0	0	0	508	508	0	604	38	29	
0	0	0	0	0	511	508	0	616	38	30	
1	0	0	0	0	509	508	0	622	38	30	
2	0	0	0	0	509	507	0	627	38	28	
3	0	0	0	0	510	505	0	628	38	27	
4	0	0	0	0	510	505	0	619	38	26	
5	0	0	0	0	508	507	0	611	38	27	
6	0	0	0	0	508	507	0	583	38	28	
7	0	0	0	0	509	508	0	564	38	29	
8	0	0	0	0	510	507	0	556	38	30	
9	0	0	0	0	508	507	0	558	38	30	
10	0	0	0	0	508	507	0	563	38	29	
11	0	0	0	0	508	506	0	562	38	28	
12	0	0	0	0	508	506	0	572	38	26	
13	0	0	0	0	509	507	0	586	38	27	
14	0	0	0	0	507	508	0	583	38	28	
15	0	0	0	0	510	508	0	573	38	29	
0	0	0	0	0	510	508	0	562	38	30	
1	0	0	0	0	511	509	0	568	38	30	
2	0	0	0	0	510	509	0	570	38	29	
3	0	0	0	0	509	510	0	560	39	28	
4	0	0	0	0	509	509	0	545	38	27	
5	0	0	0	0	510	508	0	522	38	26	
6	0	0	0	0	510	508	0	525	38	27	
7	0	0	0	0	511	507	0	530	38	28	
8	0	0	0	0	507	507	0	537	38	29	
9	0	0	0	0	509	507	0	537	38	30	
10	0	0	0	0	509	507	0	519	38	30	
11	0	0	0	0	510	505	0	504	38	29	
12	0	0	0	0	509	505	0	495	38	27	
13	0	0	0	0	508	504	0	488	38	26	
14	0	0	0	0	509	505	0	492	38	27	
15	0	0	0	0	509	506	0	488	38	28	
0	0	0	0	0	510	506	0	499	38	29	
1	0	0	0	0	510	505	0	511	38	30	
2	0	0	0	0	508	506	0	492	38	30	
3	0	0	0	0	508	505	0	461	39	29	
4	0	0	0	0	507	507	0	441	38	28	
5	0	0	0	0	508	507	0	443	38	27	
6	0	0	0	0	509	508	0	462	38	27	
7	0	0	0	0	510	508	0	486	38	28	
8	0	0	0	0	507	506	0	507	38	29	
9	0	0	0	0	510	507	0	526	38	30	
10	0	0	0	0	512	509	0	549	38	30	
11	0	0	0	0	511	508	0	579	38	29	
12	0	0	0	0	509	510	0	593	38	28	
13	0	0	0	0	511	510	0	609	38	27	
14	0	0	0	0	509	512	0	626	38	26	
15	0	0	0	0	507	511	0	636	38	27	
0	0	0	0	0	508	511	0	632	38	28	
1	0	0	0	0	509	511	0	638	38	29	
2	0	0	0	0	508	510	0	618	38	30	
3	0	0	0	0	511	509	0	613	38	30	
4	0	0	0	0	512	509	0	624	38	29	
5	0	0	0	0	510	509	0	617	38	27	
6	0	0	0	0	510	507	0	603	38	26	
7	0	0	0	0	509	507	0	600	38	27	
8	0	0	0	0	508	507	0	606	38	28	
9	0	0	0	0	508	507	0	613	38	29	
10	0	0	0	0	511	507	0	621	38	30	
11	0	0	0	0	511	509	0	631	38	30	
12	0	0	0	0	509	508	0	619	38	29	
13	0	0	0	0	508	508	0	593	38	28	
14	0	0	0	0	507	508	0	583	38	27	
15	0	0	0	0	508	507	0	564	38	27	
0	0	0	0	0	508	508	0	529	38	28	
1	0	0	0	0	507	508	0	506	38	29	
2	0	0	0	0	509	507	0	483	38	30	
3	0	0	0	0	509	509	0	483	38	30	
4	0	0	0	0	510	508	0	491	38	29	
5	0	0	0	0	508	508	0	508	38	28	
6	0	0	0	0	510	504	0	504	38	27	
7	0	0	0	0	509	506	0	480	38	27	
8	0	0	0	0	507	507	0	470	38	27	
9	0	0	0	0	510	507	0	467	38	28	
10	0	0	0	0	510	508	0	469	38	29	
11	0	0	0	0	509	510	0	482	39	30	
12	0	0	0	0	511	509	0	495	38	30	
13	0	0	0	0	511	508	0	522	38	29	
14	0	0	0	0	510	507	0	541	38	27	
15	0	0	0	0	508	506	0	552	38	26	
0	0	0	0	0	509	506	0	551	38	27	
1	0	0	0	0	508	505	0	539	38	28	
2	0	0	0	0	511	505	0	542	38	29	
3	0	0	0	0	509	507	0	556	39	30	
4	0	0	0	0	508	507	0	575	38	30	
5	0	0	0	0	508	507	0	582	38	29	
6	0	0	0	0	511	507	0	588	38	28	
7	0	0	0	0	512	507	0	574	38	27	
8	0	0	0	0	508	506	0	572	38	27	
9	0	0	0	0	510	508	0	590	38	28	
10	0	0	0	0	509	508	0	590	38	29	
11	0	0	0	0	509	506	0	575	38	30	
12	0	0	0	0	512	506	0	568	38	30	
13	0	0	0	0	510	506	0	580	38	29	
14	0	0	0	0	510	507	0	597	38	28	
15	0	0	0	0	508	506	0	598	38	27	
0	0	0	0	0	510	506	0	594	38	27	
1	0	0	0	0	508	508	0	614	38	27	
2	0	0	0	0	511	508	0	613	38	29	
3	0	0	0	0	509	508	0	616	38	29	
4	0	0	0	0	507	506	0	613	38	30	
5	0	0	0	0	507	506	0	604	38	30	
6	0	0	0	0	506	505	0	606	38	29	
7	0	0	0	0	507	505	0	606	38	27	
8	0	0	0	0	507	506	0	596	38	27	
9	0	0	0	0	508	507	0	588	38	27	
10	0	0	0	0	508	507	0	571	38	28	
11	0	0	0	0	507	508	0	570	38	29	
12	0	0	0	0	506	505	0	567	38	30	
13	0	0	0	0	508	507	0	558	38	30	
14	0	0	0	0	511	507	0	552	38	29	
15	0	0	0	0	510	508	0	536	38	28	
0	0	0	0	0	511	510	0	544	38	27	
1	0	0	0	0	510	511	0	555	38	27	
2	0	0	0	0	510	511	0	566	38	28	
3	0	0	0	0	510	511	0	568	38	29	
4	0	0	0	0	509	510	0	567	38	30	
5	0	0	0	0	509	509	0	574	38	30	
6	0	0	0	0	508	509	0	575	38	30	
7	0	0	0	0	508	509	0	577	38	28	
8	0	0	0	0	508	510	0	576	38	27	
9	0	0	0	0	507	508	0	564	38	27	
10	0	0	0	0	507	508	0	574	38	27	
11	0	0	0	0	509	508	0	588	38	29	
12	0	0	0	0	509	507	0	600	38	29	
13	0	0	0	0	509	506	0	618	38	30	
14	0	0	0	0	511	505	0	618	38	30	
15	0	0	0	0	510	507	0	620	38	29	
0	0	0	0	0	508	507	0	624	38	27	
1	0	0	0	0	511	507	0	624	38	27	
2	0	0	0	0	509	507	0	611	38	27	
3	0	0	0	0	508	509	0	591	38	28	
4	0	0	0	0	509	509	0	593	38	29	
5	0	0	0	0	510	509	0	598	38	30	
6	0	0	0	0	509	508	0	599	38	30	
7	0	0	0	0	508	507	0	590	38	29	
8	0	0	0	0	507	507	0	562	38	28	
9	0	0	0	0	509	507	0	553	38	27	
10	0	0	0	0	508	506	0	555	38	27	
11	0	0	0	0	509	507	0	537	39	28	
12	0	0	0	0	508	508	0	538	38	29	
13	0	0	0	0	509	508	0	546	38	30	
14	0	0	0	0	510	508	0	554	38	30	
15	0	0	0	0	507	510	0	551	38	30	
0	0	0	0	0	510	510	0	551	38	28	
1	0	0	0	0	508	508	0	551	38	27	
2	0	0	0	0	509	507	0	543	38	27	
3	0	0	0	0	510	507	0	544	39	27	
4	0	0	0	0	510	505	0	550	38	29	
5	0	0	0	0	509	504	0	556	38	29	
6	0	0	0	0	508	504	0	550	38	30	
7	0	0	0	0	508	504	0	545	38	30	
8	0	0	0	0	510	504	0	535	38	29	
9	0	0	0	0	509	506	0	515	38	27	
10	0	0	0	0	509	506	0	510	38	27	
11	0	0	0	0	507	506	0	500	39	27	
12	0	0	0	0	508	505	0	482	38	28	
13	0	0	0	0	508	505	0	483	38	29	
14	0	0	0	0	509	504	0	500	38	30	
15	0	0	0	0	510	504	0	527	38	30	
0	0	0	0	0	510	506	0	536	38	29	
1	0	0	0	0	508	506	0	524	38	28	
2	0	0	0	0	508	507	0	520	38	27	
3	0	0	0	0	510	506	0	527	38	27	
4	0	0	0	0	510	504	0	519	38	28	
5	0	0	0	0	507	503	0	493	38	29	
6	0	0	0	0	508	504	0	462	38	30	
7	0	0	0	0	510	507	0	464	38	30	
8	0	0	0	0	509	505	0	474	38	30	
9	0	0	0	0	509	506	0	493	38	28	
10	0	0	0	0	510	506	0	505	38	27	
11	0	0	0	0	509	505	0	505	38	27	
12	0	0	0	0	511	505	0	518	38	27	
13	0	0	0	0	510	506	0	534	38	29	
14	0	0	0	0	509	507	0	558	38	30	
15	0	0	0	0	508	507	0	564	38	30	
0	0	0	0	0	511	507	0	548	38	30	
1	0	0	0	0	510	507	0	547	38	29	
2	0	0	0	0	510	509	0	557	38	27	
3	0	0	0	0	509	509	0	564	38	27	
4	0	0	0	0	509	508	0	536	38	27	
5	0	0	0	0	509	509	0	520	38	28	
6	0	0	0	0	508	510	0	518	38	29	
7	0	0	0	0	509	511	0	516	38	30	
8	0	0	0	0	509	512	0	522	38	30	
9	0	0	0	0	508	512	0	525	38	29	
10	0	0	0	0	510	511	0	519	38	28	
11	0	0	0	0	510	510	0	525	38	27	
12	0	0	0	0	510	509	0	549	38	27	
13	0	0	0	0	508	509	0	590	38	28	
14	0	0	0	0	510	510	0	629	38	29	
15	0	0	0	0	508	510	0	649	38	30	
0	0	0	0	0	508	510	0	656	38	30	
1	0	0	0	0	509	509	0	664	38	30	
2	0	0	0	0	509	508	0	676	38	28	
3	0	0	0	0	508	508	0	673	38	27	
4	0	0	0	0	509	509	0	639	38	27	
5	0	0	0	0	510	509	0	601	38	27	
6	0	0	0	0	511	509	0	576	38	29	
7	0	0	0	0	510	507	0	563	38	30	
8	0	0	0	0	508	507	0	553	38	30	
9	0	0	0	0	510	510	0	544	38	30	
10	0	0	0	0	510	509	0	563	38	29	
11	0	0	0	0	507	508	0	563	38	27	
12	0	0	0	0	508	508	0	574	38	27	
13	0	0	0	0	507	509	0	587	38	27	
14	0	0	0	0	510	509	0	588	38	28	
15	0	0	0	0	510	508	0	606	38	29	
0	0	0	0	0	510	508	0	600	38	30	
1	0	0	0	0	509	509	0	600	38	30	
2	0	0	0	0	509	508	0	586	38	29	
3	0	0	0	0	509	507	0	575	38	28	
4	0	0	0	0	508	504	0	583	38	27	
5	0	0	0	0	508	504	0	590	38	27	
6	0	0	0	0	510	505	0	580	38	28	
7	0	0	0	0	508	505	0	570	38	29	
8	0	0	0	0	508	506	0	559	38	30	
9	0	0	0	0	510	507	0	582	38	30	
10	0	0	0	0	508	506	0	573	38	30	
11	0	0	0	0	509	506	0	555	38	28	
12	0	0	0	0	508	508	0	533	38	27	
13	0	0	0	0	508	507	0	500	38	27	
14	0	0	0	0	508	507	0	489	38	27	
15	0	0	0	0	509	507	0	499	38	29	
0	0	0	0	0	509	507	0	515	38	30	
1	0	0	0	0	509	507	0	513	38	30	
2	0	0	0	0	511	507	0	511	38	30	
3	0	0	0	0	511	506	0	509	38	29	
4	0	0	0	0	508	507	0	509	38	28	
5	0	0	0	0	510	507	0	518	38	27	
6	0	0	0	0	509	507	0	520	38	27	
7	0	0	0	0	510	505	0	508	38	28	
8	0	0	0	0	508	507	0	508	38	29	
9	0	0	0	0	507	509	0	511	38	30	
10	0	0	0	0	510	510	0	525	38	30	
11	0	0	0	0	508	511	0	530	38	29	
12	0	0	0	0	508	510	0	518	38	28	
13	0	0	0	0	508	510	0	521	38	27	
14	0	0	0	0	510	511	0	513	38	27	
15	0	0	0	0	509	512	0	516	38	28	
0	0	0	0	0	508	511	0	520	38	29	
1	0	0	0	0	510	511	0	516	38	30	
2	0	0	0	0	508	511	0	516	38	30	
3	0	0	0	0	510	511	0	517	38	30	
4	0	0	0	0	508	511	0	519	38	28	
5	0	0	0	0	511	511	0	544	38	27	
6	0	0	0	0	508	511	0	566	38	27	
7	0	0	0	0	510	511	0	596	38	28	
8	0	0	0	0	508	511	0	626	38	29	
9	0	0	0	0	509	510	0	629	38	30	
10	0	0	0	0	510	510	0	617	38	30	
11	0	0	0	0	509	511	0	591	38	30	
12	0	0	0	0	510	512	0	575	38	29	
13	0	0	0	0	510	512	0	560	38	28	
14	0	0	0	0	511	512	0	546	38	27	
15	0	0	0	0	511	510	0	536	38	27	
0	0	0	0	0	510	509	0	526	38	28	
1	0	0	0	0	511	509	0	532	38	29	
2	0	0	0	0	509	509	0	542	38	30	
3	0	0	0	0	509	508	0	549	39	30	
4	0	0	0	0	511	509	0	555	38	29	
5	0	0	0	0	511	509	0	548	38	28	
6	0	0	0	0	509	509	0	551	38	27	
7	0	0	0	0	505	510	0	564	38	27	
8	0	0	0	0	508	508	0	579	38	28	
9	0	0	0	0	508	509	0	580	38	29	
10	0	0	0	0	510	508	0	568	38	30	
11	0	0	0	0	509	507	0	575	39	30	
12	0	0	0	0	508	508	0	586	38	30	
13	0	0	0	0	508	507	0	591	38	29	
14	0	0	0	0	510	507	0	597	38	27	
15	0	0	0	0	510	507	0	598	38	27	
0	0	0	0	0	509	508	0	614	38	28	
1	0	0	0	0	510	508	0	627	38	29	
2	0	0	0	0	507	507	0	640	38	30	
3	0	0	0	0	507	506	0	651	38	30	
4	0	0	0	0	509	505	0	647	38	30	
5	0	0	0	0	511	506	0	641	38	29	
6	0	0	0	0	511	506	0	646	38	28	
7	0	0	0	0	509	506	0	644	38	27	
8	0	0	0	0	508	507	0	633	38	27	
9	0	0	0	0	510	507	0	627	38	28	
10	0	0	0	0	509	505	0	631	38	29	
11	0	0	0	0	509	505	0	636	38	30	
12	0	0	0	0	509	507	0	617	38	30	
13	0	0	0	0	509	509	0	593	38	29	
14	0	0	0	0	508	509	0	566	38	28	
15	0	0	0	0	508	508	0	536	38	27	
0	0	0	0	0	508	508	0	515	38	27	
1	0	0	0	0	507	507	0	506	38	28	
2	0	0	0	0	508	505	0	509	38	29	
3	0	0	0	0	506	505	0	512	39	30	
4	0	0	0	0	509	506	0	517	38	30	
5	0	0	0	0	510	507	0	516	38	30	
6	0	0	0	0	510	506	0	523	38	28	
7	0	0	0	0	508	507	0	533	38	27	
8	0	0	0	0	510	508	0	555	38	27	
9	0	0	0	0	510	509	0	589	38	27	
10	0	0	0	0	510	510	0	609	38	29	
11	0	0	0	0	510	509	0	624	39	30	
12	0	0	0	0	511	508	0	621	38	30	
13	0	0	0	0	508	508	0	619	38	30	
14	0	0	0	0	507	506	0	627	38	29	
15	0	0	0	0	508	508	0	630	38	28	
0	0	0	0	0	507	507	0	627	38	27	
1	0	0	0	0	510	507	0	631	38	27	
2	0	0	0	0	509	508	0	614	38	28	
3	0	0	0	0	510	509	0	620	39	29	
4	0	0	0	0	510	509	0	627	38	30	
5	0	0	0	0	508	511	0	628	38	30	
6	0	0	0	0	508	511	0	619	38	29	
7	0	0	0	0	510	511	0	598	38	28	
8	0	0	0	0	510	510	0	593	38	27	
9	0	0	0	0	510	511	0	582	38	27	
10	0	0	0	0	509	509	0	571	38	28	
11	0	0	0	0	509	507	0	545	39	29	
12	0	0	0	0	510	507	0	515	38	30	
13	0	0	0	0	506	507	0	508	38	30	
14	0	0	0	0	510	506	0	514	38	30	
15	0	0	0	0	507	510	0	544	38	29	
0	0	0	0	0	507	507	0	553	38	27	
1	0	0	0	0	510	505	0	561	38	27	
2	0	0	0	0	510	507	0	572	38	28	
3	0	0	0	0	508	510	0	571	38	29	
4	0	0	0	0	509	510	0	570	38	30	
5	0	0	0	0	512	508	0	561	38	30	
6	0	0	0	0	512	510	0	551	38	30	
7	0	0	0	0	510	509	0	569	38	29	
8	0	0	0	0	510	508	0	598	38	28	
9	0	0	0	0	508	510	0	605	38	27	
10	0	0	0	0	509	509	0	588	38	27	
11	0	0	0	0	508	508	0	562	38	28	
12	0	0	0	0	510	507	0	548	38	29	
13	0	0	0	0	508	506	0	543	38	30	
14	0	0	0	0	508	507	0	530	38	30	
15	0	0	0	0	508	507	0	531	38	30	
0	0	0	0	0	508	507	0	523	38	28	
1	0	0	0	0	509	506	0	527	38	27	
2	0	0	0	0	509	505	0	543	38	27	
3	0	0	0	0	510	504	0	569	38	28	
4	0	0	0	0	510	504	0	558	38	29	
5	0	0	0	0	509	504	0	548	38	30	
6	0	0	0	0	511	504	0	548	38	30	
7	0	0	0	0	508	504	0	558	38	30	
8	0	0	0	0	508	504	0	566	38	29	
9	0	0	0	0	510	505	0	571	38	27	
10	0	0	0	0	509	505	0	569	38	27	
11	0	0	0	0	508	504	0	571	38	28	
12	0	0	0	0	510	506	0	563	38	29	
13	0	0	0	0	509	508	0	555	38	30	
14	0	0	0	0	509	507	0	527	38	30	
15	0	0	0	0	508	508	0	510	38	30	
0	0	0	0	0	508	507	0	497	38	29	
1	0	0	0	0	507	505	0	483	38	28	
2	0	0	0	0	508	506	0	477	38	27	
3	0	0	0	0	508	505	0	467	38	27	
4	0	0	0	0	508	504	0	458	38	28	
5	0	0	0	0	510	507	0	456	38	29	
6	0	0	0	0	510	506	0	458	38	30	
7	0	0	0	0	508	505	0	485	38	30	
8	0	0	0	0	511	504	0	517	38	30	
9	0	0	0	0	511	504	0	522	38	28	
10	0	0	0	0	511	505	0	513	38	27	
11	0	0	0	0	510	506	0	505	39	27	
12	0	0	0	0	512	505	0	508	38	28	
13	0	0	0	0	509	505	0	516	38	29	
14	0	0	0	0	508	504	0	527	38	30	
15	0	0	0	0	507	504	0	560	38	30	
0	0	0	0	0	510	503	0	579	38	30	
1	0	0	0	0	508	506	0	576	38	29	
2	0	0	0	0	508	505	0	560	38	27	
3	0	0	0	0	510	505	0	533	38	27	
4	0	0	0	0	506	505	0	518	38	28	
5	0	0	0	0	509	505	0	521	38	29	
6	0	0	0	0	510	505	0	523	38	30	
7	0	0	0	0	508	505	0	515	38	30	
8	0	0	0	0	511	506	0	491	38	30	
9	0	0	0	0	509	507	0	484	38	29	
10	0	0	0	0	510	508	0	499	38	28	
11	0	0	0	0	510	508	0	512	38	27	
12	0	0	0	0	509	507	0	510	38	27	
13	0	0	0	0	509	508	0	497	38	28	
14	0	0	0	0	509	506	0	504	38	29	
15	0	0	0	0	509	505	0	506	38	30	
0	0	0	0	0	509	506	0	499	38	30	
1	0	0	0	0	508	505	0	484	38	30	
2	0	0	0	0	508	505	0	467	38	28	
3	0	0	0	0	508	505	0	467	39	27	
4	0	0	0	0	510	506	0	475	38	27	
5	0	0	0	0	510	508	0	488	38	28	
6	0	0	0	0	510	508	0	493	38	29	
7	0	0	0	0	508	508	0	468	38	30	
8	0	0	0	0	508	509	0	471	38	30	
9	0	0	0	0	508	509	0	475	38	30	
10	0	0	0	0	510	509	0	485	38	29	
11	0	0	0	0	508	507	0	491	39	27	
12	0	0	0	0	506	506	0	475	38	27	
13	0	0	0	0	508	506	0	491	38	27	
14	0	0	0	0	508	509	0	523	38	29	
15	0	0	0	0	511	510	0	547	38	30	
0	0	0	0	0	511	510	0	563	38	30	
1	0	0	0	0	511	510	0	568	38	30	
2	0	0	0	0	508	512	0	578	38	29	
3	0	0	0	0	508	512	0	580	38	28	
4	0	0	0	0	509	511	0	571	38	27	
5	0	0	0	0	509	510	0	559	38	27	
6	0	0	0	0	509	510	0	549	38	28	
7	0	0	0	0	509	511	0	553	38	29	
8	0	0	0	0	509	511	0	547	38	30	
9	0	0	0	0	509	510	0	528	38	30	
10	0	0	0	0	511	511	0	511	38	30	
11	0	0	0	0	510	511	0	499	39	28	
12	0	0	0	0	509	509	0	499	38	27	
13	0	0	0	0	510	509	0	510	38	27	
14	0	0	0	0	509	510	0	512	38	28	
15	0	0	0	0	511	510	0	517	38	29	
0	0	0	0	0	509	510	0	513	38	30	
1	0	0	0	0	507	509	0	518	38	30	
2	0	0	0	0	509	509	0	539	38	30	
3	0	0	0	0	508	510	0	544	38	29	
4	0	0	0	0	508	510	0	538	38	27	
5	0	0	0	0	509	510	0	524	38	27	
6	0	0	0	0	508	511	0	519	38	27	
7	0	0	0	0	509	509	0	514	38	29	
8	0	0	0	0	509	508	0	503	38	30	
9	0	0	0	0	510	507	0	499	38	30	
10	0	0	0	0	510	508	0	493	38	30	
11	0	0	0	0	510	508	0	502	39	29	
12	0	0	0	0	508	509	0	514	38	28	
13	0	0	0	0	508	508	0	518	38	27	
14	0	0	0	0	509	505	0	512	38	27	
15	0	0	0	0	508	506	0	484	38	28	
0	0	0	0	0	511	505	0	479	38	29	
1	0	0	0	0	508	504	0	491	38	30	
2	0	0	0	0	509	506	0	500	38	30	
3	0	0	0	0	510	506	0	510	38	30	
4	0	0	0	0	511	504	0	508	38	28	
5	0	0	0	0	510	506	0	511	38	27	
6	0	0	0	0	511	508	0	521	38	27	
7	0	0	0	0	510	509	0	532	38	28	
8	0	0	0	0	508	510	0	524	38	29	
9	0	0	0	0	510	508	0	492	38	30	
10	0	0	0	0	510	508	0	478	38	30	
11	0	0	0	0	510	508	0	480	38	30	
12	0	0	0	0	508	507	0	493	38	29	
13	0	0	0	0	508	507	0	495	38	27	
14	0	0	0	0	510	506	0	478	38	27	
15	0	0	0	0	509	508	0	463	38	28	
0	0	0	0	0	510	509	0	459	38	29	
1	0	0	0	0	508	511	0	451	38	30	
2	0	0	0	0	510	510	0	449	38	30	
3	0	0	0	0	507	510	0	447	38	30	
4	0	0	0	0	509	510	0	457	38	29	
5	0	0	0	0	507	510	0	468	38	28	
6	0	0	0	0	507	510	0	476	38	27	
7	0	0	0	0	507	510	0	480	38	27	
8	0	0	0	0	510	508	0	480	38	28	
9	0	0	0	0	508	507	0	496	38	29	
10	0	0	0	0	511	507	0	516	38	30	
11	0	0	0	0	508	505	0	527	38	30	
12	0	0	0	0	509	505	0	520	38	30	
13	0	0	0	0	508	507	0	514	38	28	
14	0	0	0	0	511	509	0	513	38	27	
15	0	0	0	0	509	508	0	516	38	27	
0	0	0	0	0	511	508	0	535	38	28	
1	0	0	0	0	510	508	0	537	38	29	
2	0	0	0	0	510	508	0	541	38	30	
3	0	0	0	0	509	509	0	559	38	30	
4	0	0	0	0	509	508	0	572	38	30	
5	0	0	0	0	508	508	0	582	38	29	
6	0	0	0	0	508	508	0	579	38	27	
7	0	0	0	0	507	508	0	565	38	27	
8	0	0	0	0	509	508	0	568	38	28	
9	0	0	0	0	510	508	0	574	38	29	
10	0	0	0	0	509	508	0	590	38	30	
11	0	0	0	0	511	507	0	591	39	30	
12	0	0	0	0	513	507	0	576	38	30	
13	0	0	0	0	511	506	0	576	38	29	
14	0	0	0	0	509	506	0	582	38	28	
15	0	0	0	0	510	505	0	596	38	27	
0	0	0	0	0	510	507	0	592	38	27	
1	0	0	0	0	510	509	0	567	38	28	
2	0	0	0	0	509	510	0	537	38	29	
3	0	0	0	0	511	511	0	512	39	30	
4	0	0	0	0	508	508	0	508	38	30	
5	0	0	0	0	511	506	0	495	38	30	
6	0	0	0	0	509	507	0	474	38	28	
7	0	0	0	0	507	506	0	477	38	27	
8	0	0	0	0	508	507	0	492	38	27	
9	0	0	0	0	509	505	0	496	38	28	
10	0	0	0	0	509	508	0	488	38	29	
11	0	0	0	0	508	509	0	480	39	30	
12	0	0	0	0	510	508	0	479	38	30	
13	0	0	0	0	510	508	0	480	38	30	
14	0	0	0	0	509	508	0	483	38	29	
15	0	0	0	0	509	507	0	500	38	27	
0	0	0	0	0	510	508	0	500	38	27	
1	0	0	0	0	509	509	0	498	38	28	
2	0	0	0	0	510	512	0	499	38	29	
3	0	0	0	0	510	511	0	519	38	30	
4	0	0	0	0	509	508	0	511	38	30	
5	0	0	0	0	508	509	0	515	38	30	
6	0	0	0	0	508	509	0	526	38	29	
7	0	0	0	0	511	508	0	548	38	28	
8	0	0	0	0	510	508	0	564	38	27	
9	0	0	0	0	509	510	0	568	38	27	
10	0	0	0	0	510	510	0	561	38	28	
11	0	0	0	0	510	510	0	547	39	29	
12	0	0	0	0	510	509	0	532	38	30	
13	0	0	0	0	510	508	0	526	38	31	
14	0	0	0	0	509	508	0	516	38	30	
15	0	0	0	0	509	506	0	507	38	28	
0	0	0	0	0	508	507	0	510	38	27	
1	0	0	0	0	509	508	0	521	38	27	
2	0	0	0	0	507	508	0	537	38	28	
3	0	0	0	0	508	507	0	542	38	29	
4	0	0	0	0	511	507	0	536	38	30	
5	0	0	0	0	509	507	0	544	38	31	
6	0	0	0	0	508	506	0	551	38	30	
7	0	0	0	0	510	506	0	555	38	29	
8	0	0	0	0	508	506	0	564	38	27	
9	0	0	0	0	510	506	0	562	38	27	
10	0	0	0	0	510	506	0	571	38	28	
11	0	0	0	0	511	507	0	583	38	29	
12	0	0	0	0	509	508	0	580	38	30	
13	0	0	0	0	512	507	0	559	38	30	
14	0	0	0	0	511	507	0	520	38	30	
15	0	0	0	0	510	507	0	487	38	29	
0	0	0	0	0	509	506	0	466	38	28	
1	0	0	0	0	507	506	0	465	38	27	
2	0	0	0	0	507	507	0	465	38	27	
3	0	0	0	0	505	507	0	461	38	28	
4	0	0	0	0	508	508	0	462	38	30	
5	0	0	0	0	507	508	0	460	38	30	
6	0	0	0	0	511	509	0	456	38	31	
7	0	0	0	0	509	509	0	437	38	30	
8	0	0	0	0	508	510	0	409	38	28	
9	0	0	0	0	510	510	0	420	38	27	
10	0	0	0	0	511	510	0	449	38	27	
11	0	0	0	0	510	509	0	482	38	28	
12	0	0	0	0	510	508	0	511	38	29	
13	0	0	0	0	508	509	0	525	38	30	
14	0	0	0	0	511	508	0	522	38	31	
15	0	0	0	0	510	508	0	513	38	30	
0	0	0	0	0	508	508	0	502	38	29	
1	0	0	0	0	508	509	0	495	38	28	
2	0	0	0	0	508	510	0	486	38	27	
3	0	0	0	0	509	508	0	492	39	28	
4	0	0	0	0	511	507	0	513	38	29	
5	0	0	0	0	509	507	0	537	38	30	
6	0	0	0	0	510	508	0	545	38	31	
7	0	0	0	0	511	507	0	547	38	30	
8	0	0	0	0	512	508	0	554	38	29	
9	0	0	0	0	510	508	0	558	38	28	
10	0	0	0	0	510	507	0	570	38	27	
11	0	0	0	0	510	506	0	569	38	27	
12	0	0	0	0	508	507	0	565	38	29	
13	0	0	0	0	507	507	0	571	38	30	
14	0	0	0	0	508	508	0	575	38	30	
15	0	0	0	0	509	508	0	593	38	31	
0	0	0	0	0	511	508	0	610	38	30	
1	0	0	0	0	508	507	0	621	38	29	
2	0	0	0	0	508	505	0	632	38	27	
3	0	0	0	0	507	507	0	626	38	27	
4	0	0	0	0	511	508	0	620	38	28	
5	0	0	0	0	510	507	0	608	38	29	
6	0	0	0	0	511	508	0	568	38	30	
7	0	0	0	0	509	507	0	538	38	31	
8	0	0	0	0	510	508	0	524	38	30	
9	0	0	0	0	509	508	0	510	38	29	
10	0	0	0	0	509	506	0	500	38	28	
11	0	0	0	0	509	507	0	490	38	27	
12	0	0	0	0	508	508	0	506	38	28	
13	0	0	0	0	507	507	0	529	38	29	
14	0	0	0	0	509	509	0	553	38	30	
15	0	0	0	0	508	509	0	578	38	31	
0	0	0	0	0	509	508	0	604	38	31	
1	0	0	0	0	508	508	0	628	38	30	
2	0	0	0	0	511	509	0	643	38	28	
3	0	0	0	0	507	509	0	650	38	27	
4	0	0	0	0	508	510	0	653	38	27	
5	0	0	0	0	508	510	0	655	38	29	
6	0	0	0	0	511	508	0	660	38	30	
7	0	0	0	0	508	507	0	655	38	30	
8	0	0	0	0	509	507	0	635	38	31	
9	0	0	0	0	509	507	0	621	38	30	
10	0	0	0	0	510	507	0	596	38	29	
11	0	0	0	0	508	508	0	575	38	27	
12	0	0	0	0	509	508	0	568	38	27	
13	0	0	0	0	509	509	0	566	38	28	
14	0	0	0	0	509	509	0	563	38	29	
15	0	0	0	0	509	508	0	553	38	30	
0	0	0	0	0	508	509	0	560	38	31	
1	0	0	0	0	510	509	0	567	38	30	
2	0	0	0	0	510	509	0	559	38	29	
3	0	0	0	0	512	509	0	547	38	28	
4	0	0	0	0	510	510	0	529	38	27	
5	0	0	0	0	508	510	0	525	38	28	
6	0	0	0	0	509	510	0	533	38	29	
7	0	0	0	0	509	510	0	536	38	30	
8	0	0	0	0	509	508	0	529	38	31	
9	0	0	0	0	511	508	0	524	38	31	
10	0	0	0	0	508	509	0	524	38	30	
11	0	0	0	0	511	510	0	541	38	28	
12	0	0	0	0	509	509	0	551	38	27	
13	0	0	0	0	510	508	0	539	38	27	
14	0	0	0	0	508	507	0	515	38	29	
15	0	0	0	0	508	508	0	514	38	30	
0	0	0	0	0	509	508	0	501	38	30	
1	0	0	0	0	508	508	0	484	38	31	
2	0	0	0	0	508	508	0	471	38	30	
3	0	0	0	0	508	508	0	468	39	29	
4	0	0	0	0	510	508	0	476	38	27	
5	0	0	0	0	510	508	0	473	38	27	
6	0	0	0	0	508	506	0	476	38	28	
7	0	0	0	0	510	507	0	477	38	29	
8	0	0	0	0	509	507	0	468	38	30	
9	0	0	0	0	510	508	0	472	38	31	
10	0	0	0	0	509	508	0	480	38	30	
11	0	0	0	0	508	507	0	489	39	29	
12	0	0	0	0	508	506	0	506	38	28	
13	0	0	0	0	511	507	0	511	38	27	
14	0	0	0	0	510	507	0	529	38	28	
15	0	0	0	0	510	508	0	550	38	29	
0	0	0	0	0	510	509	0	566	38	30	
1	0	0	0	0	510	507	0	569	38	31	
2	0	0	0	0	510	507	0	563	38	31	
3	0	0	0	0	509	508	0	559	39	30	
4	0	0	0	0	508	509	0	541	38	28	
5	0	0	0	0	508	509	0	523	38	27	
6	0	0	0	0	507	508	0	511	38	27	
7	0	0	0	0	510	507	0	499	38	29	
8	0	0	0	0	511	508	0	498	38	30	
9	0	0	0	0	510	510	0	496	38	30	
10	0	0	0	0	508	508	0	494	38	31	
11	0	0	0	0	508	507	0	484	39	30	
12	0	0	0	0	510	507	0	461	38	29	
13	0	0	0	0	509	508	0	450	38	27	
14	0	0	0	0	509	510	0	445	38	27	
15	0	0	0	0	508	510	0	428	38	28	
0	0	0	0	0	511	509	0	405	38	29	
1	0	0	0	0	509	509	0	398	38	30	
2	0	0	0	0	508	509	0	406	38	31	
3	0	0	0	0	508	510	0	438	38	30	
4	0	0	0	0	510	508	0	476	38	29	
5	0	0	0	0	509	506	0	478	38	28	
6	0	0	0	0	509	506	0	466	38	27	
7	0	0	0	0	508	507	0	470	38	28	
8	0	0	0	0	509	506	0	459	38	29	
9	0	0	0	0	508	507	0	446	38	30	
10	0	0	0	0	507	505	0	423	38	31	
11	0	0	0	0	507	505	0	390	38	31	
12	0	0	0	0	507	506	0	394	38	30	
13	0	0	0	0	508	505	0	427	38	28	
14	0	0	0	0	508	504	0	450	38	27	
15	0	0	0	0	509	505	0	465	38	27	
0	0	0	0	0	510	504	0	468	38	29	
1	0	0	0	0	511	505	0	481	38	30	
2	0	0	0	0	509	505	0	500	38	31	
3	0	0	0	0	510	505	0	505	38	31	
4	0	0	0	0	510	507	0	500	38	30	
5	0	0	0	0	510	507	0	489	38	29	
6	0	0	0	0	510	507	0	489	38	27	
7	0	0	0	0	510	508	0	500	38	27	
8	0	0	0	0	509	507	0	513	38	28	
9	0	0	0	0	509	507	0	517	38	29	
10	0	0	0	0	509	507	0	516	38	30	
11	0	0	0	0	509	507	0	511	38	31	
12	0	0	0	0	510	507	0	496	38	30	
13	0	0	0	0	508	505	0	483	38	29	
14	0	0	0	0	509	505	0	452	38	28	
15	0	0	0	0	508	505	0	425	38	27	
0	0	0	0	0	507	504	0	412	38	28	
1	0	0	0	0	510	505	0	415	38	29	
2	0	0	0	0	508	506	0	432	38	30	
3	0	0	0	0	507	506	0	444	39	31	
4	0	0	0	0	509	506	0	462	38	31	
5	0	0	0	0	509	506	0	478	38	30	
6	0	0	0	0	512	505	0	492	38	28	
7	0	0	0	0	512	505	0	488	38	27	
8	0	0	0	0	509	506	0	485	38	28	
9	0	0	0	0	508	507	0	479	38	29	
10	0	0	0	0	508	507	0	485	38	30	
11	0	0	0	0	510	508	0	491	38	31	
12	0	0	0	0	507	510	0	494	38	31	
13	0	0	0	0	509	508	0	501	38	30	
14	0	0	0	0	510	507	0	504	38	29	
15	0	0	0	0	510	507	0	511	38	27	
0	0	0	0	0	510	508	0	530	38	27	
1	0	0	0	0	510	508	0	537	38	28	
2	0	0	0	0	510	510	0	524	38	29	
3	0	0	0	0	509	510	0	500	38	30	
4	0	0	0	0	510	511	0	504	38	31	
5	0	0	0	0	512	512	0	520	38	30	
6	0	0	0	0	511	511	0	535	38	29	
7	0	0	0	0	510	511	0	540	38	28	
8	0	0	0	0	509	510	0	541	38	27	
9	0	0	0	0	510	510	0	551	38	28	
10	0	0	0	0	507	510	0	560	38	29	
11	0	0	0	0	511	510	0	561	38	30	
12	0	0	0	0	510	509	0	556	38	31	
13	0	0	0	0	507	508	0	551	38	31	
14	0	0	0	0	509	508	0	563	38	30	
15	0	0	0	0	507	509	0	574	38	28	
0	0	0	0	0	508	508	0	574	38	27	
1	0	0	0	0	507	508	0	568	38	28	
2	0	0	0	0	508	507	0	561	38	29	
3	0	0	0	0	510	508	0	560	39	30	
4	0	0	0	0	511	510	0	553	38	31	
5	0	0	0	0	511	510	0	543	38	31	
6	0	0	0	0	509	509	0	518	38	30	
7	0	0	0	0	508	509	0	498	38	29	
8	0	0	0	0	508	509	0	502	38	27	
9	0	0	0	0	508	508	0	512	38	27	
10	0	0	0	0	508	508	0	522	38	28	
11	0	0	0	0	509	509	0	533	38	29	
12	0	0	0	0	509	509	0	541	38	30	
13	0	0	0	0	510	509	0	547	38	31	
14	0	0	0	0	512	508	0	554	38	31	
15	0	0	0	0	509	509	0	543	38	29	
0	0	0	0	0	508	510	0	542	38	28	
1	0	0	0	0	508	509	0	549	38	27	
2	0	0	0	0	506	507	0	560	38	28	
3	0	0	0	0	507	508	0	564	38	29	
4	0	0	0	0	508	508	0	558	38	30	
5	0	0	0	0	510	508	0	571	38	31	
6	0	0	0	0	510	507	0	583	38	31	
7	0	0	0	0	512	507	0	595	38	30	
8	0	0	0	0	511	508	0	598	38	28	
9	0	0	0	0	510	508	0	587	38	27	
10	0	0	0	0	512	507	0	583	38	28	
11	0	0	0	0	510	506	0	572	38	29	
12	0	0	0	0	509	505	0	566	38	30	
13	0	0	0	0	508	506	0	550	38	31	
14	0	0	0	0	509	507	0	543	38	31	
15	0	0	0	0	509	507	0	523	38	30	
0	0	0	0	0	510	507	0	494	38	29	
1	0	0	0	0	510	507	0	487	38	27	
2	0	0	0	0	508	508	0	493	38	27	
3	0	0	0	0	509	510	0	504	38	28	
4	0	0	0	0	509	509	0	519	38	29	
5	0	0	0	0	507	508	0	523	38	30	
6	0	0	0	0	509	506	0	526	38	31	
7	0	0	0	0	510	506	0	528	38	31	
8	0	0	0	0	510	508	0	531	38	29	
9	0	0	0	0	509	509	0	542	38	28	
10	0	0	0	0	507	508	0	537	38	27	
11	0	0	0	0	507	508	0	539	38	28	
12	0	0	0	0	510	507	0	541	38	29	
13	0	0	0	0	509	506	0	523	38	30	
14	0	0	0	0	509	506	0	500	38	31	
15	0	0	0	0	508	505	0	479	38	31	
0	0	0	0	0	508	507	0	493	38	30	
1	0	0	0	0	508	509	0	513	38	28	
2	0	0	0	0	508	508	0	530	38	27	
3	0	0	0	0	509	507	0	540	38	28	
4	0	0	0	0	509	507	0	532	38	29	
5	0	0	0	0	510	507	0	518	38	30	
6	0	0	0	0	508	509	0	510	38	31	
7	0	0	0	0	509	508	0	509	38	31	
8	0	0	0	0	510	508	0	500	38	30	
9	0	0	0	0	510	508	0	485	38	29	
10	0	0	0	0	510	507	0	477	38	27	
11	0	0	0	0	509	507	0	476	38	27	
12	0	0	0	0	509	508	0	481	38	28	
13	0	0	0	0	509	508	0	486	38	29	
14	0	0	0	0	507	508	0	487	38	30	
15	0	0	0	0	509	507	0	508	38	31	
0	0	0	0	0	511	508	0	524	38	30	
1	0	0	0	0	510	507	0	538	38	29	
2	0	0	0	0	510	508	0	535	38	28	
3	0	0	0	0	511	509	0	523	38	27	
4	0	0	0	0	508	507	0	504	38	28	
5	0	0	0	0	508	506	0	507	38	29	
6	0	0	0	0	510	508	0	505	38	30	
7	0	0	0	0	510	508	0	493	38	31	
8	0	0	0	0	508	508	0	481	38	31	
9	0	0	0	0	508	508	0	479	38	30	
10	0	0	0	0	510	507	0	486	38	28	
11	0	0	0	0	509	508	0	507	39	27	
12	0	0	0	0	507	508	0	524	38	27	
13	0	0	0	0	508	508	0	536	38	29	
14	0	0	0	0	509	508	0	558	38	30	
15	0	0	0	0	509	508	0	564	38	30	
0	0	0	0	0	508	507	0	583	38	31	
1	0	0	0	0	508	507	0	572	38	30	
2	0	0	0	0	508	507	0	550	38	29	
3	0	0	0	0	510	508	0	550	39	27	
4	0	0	0	0	510	509	0	540	38	27	
5	0	0	0	0	509	508	0	549	38	28	
6	0	0	0	0	509	508	0	539	38	29	
7	0	0	0	0	509	508	0	516	38	30	
8	0	0	0	0	509	507	0	499	38	31	
9	0	0	0	0	510	505	0	494	38	30	
10	0	0	0	0	510	506	0	499	38	29	
11	0	0	0	0	511	506	0	493	38	28	
12	0	0	0	0	509	507	0	475	38	27	
13	0	0	0	0	511	509	0	478	38	28	
14	0	0	0	0	510	508	0	500	38	29	
15	0	0	0	0	508	508	0	503	38	30	
0	0	0	0	0	510	508	0	509	38	31	
1	0	0	0	0	507	508	0	514	38	31	
2	0	0	0	0	510	508	0	519	38	30	
3	0	0	0	0	510	507	0	520	38	28	
4	0	0	0	0	510	508	0	525	38	27	
5	0	0	0	0	508	508	0	528	38	27	
6	0	0	0	0	510	509	0	520	38	28	
7	0	0	0	0	510	508	0	537	38	30	
8	0	0	0	0	510	506	0	566	38	30	
9	0	0	0	0	511	506	0	594	38	31	
10	0	0	0	0	508	506	0	615	38	30	
11	0	0	0	0	510	505	0	608	38	29	
12	0	0	0	0	508	505	0	605	38	27	
13	0	0	0	0	509	506	0	611	38	27	
14	0	0	0	0	506	508	0	615	38	28	
15	0	0	0	0	508	508	0	608	38	29	
0	0	0	0	0	509	507	0	594	38	30	
1	0	0	0	0	509	508	0	592	38	31	
2	0	0	0	0	510	507	0	586	38	30	
3	0	0	0	0	510	508	0	585	39	29	
4	0	0	0	0	510	509	0	575	38	28	
5	0	0	0	0	508	508	0	543	38	27	
6	0	0	0	0	508	508	0	524	38	28	
7	0	0	0	0	509	507	0	524	38	29	
8	0	0	0	0	508	507	0	536	38	30	
9	0	0	0	0	508	506	0	535	38	30	
10	0	0	0	0	511	506	0	528	38	30	
11	0	0	0	0	513	506	0	531	39	29	
12	0	0	0	0	510	507	0	527	38	28	
13	0	0	0	0	509	508	0	516	38	27	
14	0	0	0	0	509	509	0	503	38	27	
15	0	0	0	0	508	508	0	475	38	28	
0	0	0	0	0	509	510	0	464	38	29	
1	0	0	0	0	508	510	0	470	38	30	
2	0	0	0	0	508	509	0	479	38	31	
3	0	0	0	0	508	510	0	480	39	30	
4	0	0	0	0	508	510	0	476	38	28	
5	0	0	0	0	509	509	0	482	38	27	
6	0	0	0	0	509	508	0	483	38	27	
7	0	0	0	0	507	506	0	489	38	28	
8	0	0	0	0	509	507	0	499	38	29	
9	0	0	0	0	509	508	0	512	38	30	
10	0	0	0	0	510	507	0	528	38	31	
11	0	0	0	0	509	507	0	541	38	30	
12	0	0	0	0	508	507	0	560	38	29	
13	0	0	0	0	511	506	0	570	38	27	
14	0	0	0	0	510	506	0	569	38	27	
15	0	0	0	0	509	508	0	581	38	27	
0	0	0	0	0	509	508	0	578	38	29	
1	0	0	0	0	511	507	0	583	38	30	
2	0	0	0	0	511	508	0	582	38	30	
3	0	0	0	0	508	508	0	573	38	30	
4	0	0	0	0	511	508	0	573	38	29	
5	0	0	0	0	509	508	0	567	38	28	
6	0	0	0	0	509	506	0	556	38	27	
7	0	0	0	0	510	507	0	546	38	27	
8	0	0	0	0	511	507	0	529	38	28	
9	0	0	0	0	509	506	0	530	38	29	
10	0	0	0	0	510	507	0	524	38	30	
11	0	0	0	0	508	507	0	513	38	30	
12	0	0	0	0	510	507	0	500	38	30	
13	0	0	0	0	508	507	0	483	38	28	
14	0	0	0	0	508	505	0	485	38	27	
15	0	0	0	0	508	506	0	490	38	27	
0	0	0	0	0	508	505	0	491	38	28	
1	0	0	0	0	508	505	0	481	38	29	
2	0	0	0	0	508	505	0	467	38	30	
3	0	0	0	0	508	507	0	468	38	30	
4	0	0	0	0	510	507	0	489	38	30	
5	0	0	0	0	511	507	0	515	38	29	
6	0	0	0	0	509	507	0	532	38	27	
7	0	0	0	0	510	509	0	543	38	27	
8	0	0	0	0	510	510	0	552	38	27	
9	0	0	0	0	509	511	0	547	38	28	
10	0	0	0	0	507	510	0	549	38	30	
11	0	0	0	0	509	510	0	537	38	30	
12	0	0	0	0	511	507	0	508	38	30	
13	0	0	0	0	509	507	0	494	38	29	
14	0	0	0	0	511	508	0	481	38	28	
15	0	0	0	0	509	510	0	474	38	27	
0	0	0	0	0	509	509	0	483	38	27	
1	0	0	0	0	510	507	0	502	38	28	
2	0	0	0	0	508	508	0	530	38	29	
3	0	0	0	0	510	508	0	550	38	30	
4	0	0	0	0	508	508	0	566	38	30	
5	0	0	0	0	510	507	0	579	38	30	
6	0	0	0	0	509	505	0	572	38	28	
7	0	0	0	0	506	506	0	569	38	27	
8	0	0	0	0	509	506	0	573	38	27	
9	0	0	0	0	508	508	0	568	38	28	
10	0	0	0	0	508	508	0	561	38	29	
11	0	0	0	0	508	508	0	562	38	30	
12	0	0	0	0	510	507	0	565	38	30	
13	0	0	0	0	508	508	0	574	38	30	
14	0	0	0	0	509	508	0	575	38	29	
15	0	0	0	0	509	507	0	556	38	27	
0	0	0	0	0	510	508	0	537	38	27	
1	0	0	0	0	510	508	0	536	38	27	
2	0	0	0	0	509	508	0	527	38	28	
3	0	0	0	0	510	509	0	515	38	29	
4	0	0	0	0	508	508	0	485	38	30	
5	0	0	0	0	508	508	0	455	38	30	
6	0	0	0	0	509	508	0	457	38	29	
7	0	0	0	0	510	508	0	456	38	28	
8	0	0	0	0	510	507	0	455	38	27	
9	0	0	0	0	509	506	0	449	38	27	
10	0	0	0	0	510	507	0	431	38	28	
11	0	0	0	0	507	508	0	435	38	29	
12	0	0	0	0	508	509	0	429	38	30	
13	0	0	0	0	508	508	0	424	38	30	
14	0	0	0	0	508	507	0	422	38	29	
15	0	0	0	0	510	508	0	412	38	28	
0	0	0	0	0	512	509	0	423	38	27	
1	0	0	0	0	512	510	0	445	38	26	
2	0	0	0	0	511	510	0	458	38	27	
3	0	0	0	0	509	510	0	466	38	29	
4	0	0	0	0	510	510	0	455	38	30	
5	0	0	0	0	508	510	0	450	38	30	
6	0	0	0	0	508	509	0	451	38	30	
7	0	0	0	0	508	508	0	457	38	28	
8	0	0	0	0	508	508	0	453	38	27	
9	0	0	0	0	508	508	0	443	38	26	
10	0	0	0	0	507	507	0	448	38	27	
11	0	0	0	0	507	508	0	459	38	28	
12	0	0	0	0	510	507	0	479	38	29	
13	0	0	0	0	508	505	0	496	38	30	
14	0	0	0	0	507	502	0	493	38	30	
15	0	0	0	0	505	503	0	495	38	29	
0	0	0	0	0	509	504	0	509	38	27	
1	0	0	0	0	510	504	0	534	38	26	
2	0	0	0	0	510	506	0	546	38	27	
3	0	0	0	0	508	507	0	539	39	28	
4	0	0	0	0	511	506	0	538	38	29	
5	0	0	0	0	511	508	0	526	38	30	
6	0	0	0	0	509	506	0	506	38	30	
7	0	0	0	0	509	506	0	482	38	29	
8	0	0	0	0	509	506	0	465	38	28	
9	0	0	0	0	508	506	0	470	38	27	
10	0	0	0	0	508	507	0	480	38	26	
11	0	0	0	0	507	507	0	472	39	27	
12	0	0	0	0	509	506	0	451	38	28	
13	0	0	0	0	509	508	0	432	38	29	
14	0	0	0	0	510	508	0	422	38	30	
15	0	0	0	0	510	508	0	424	38	30	
0	0	0	0	0	510	509	0	436	38	28	
1	0	0	0	0	510	509	0	455	38	27	
2	0	0	0	0	510	509	0	460	38	26	
3	0	0	0	0	509	510	0	473	38	27	
4	0	0	0	0	511	509	0	492	38	28	
5	0	0	0	0	509	508	0	507	38	29	
6	0	0	0	0	509	508	0	531	38	30	
7	0	0	0	0	508	509	0	529	38	30	
8	0	0	0	0	507	509	0	544	38	29	
9	0	0	0	0	508	510	0	541	38	27	
10	0	0	0	0	508	509	0	531	38	26	
11	0	0	0	0	508	509	0	519	38	26	
12	0	0	0	0	506	508	0	497	38	28	
13	0	0	0	0	508	507	0	490	38	29	
14	0	0	0	0	510	507	0	502	38	30	
15	0	0	0	0	510	508	0	525	38	30	
0	0	0	0	0	508	507	0	544	38	29	
1	0	0	0	0	506	508	0	553	38	28	
2	0	0	0	0	508	508	0	541	38	26	
3	0	0	0	0	508	509	0	545	38	26	
4	0	0	0	0	510	508	0	544	38	27	
5	0	0	0	0	511	508	0	540	38	28	
6	0	0	0	0	510	508	0	528	38	29	
7	0	0	0	0	511	508	0	530	38	30	
8	0	0	0	0	509	508	0	539	38	29	
9	0	0	0	0	508	508	0	555	38	28	
10	0	0	0	0	508	507	0	558	38	27	
11	0	0	0	0	509	505	0	555	38	26	
12	0	0	0	0	509	507	0	569	38	27	
13	0	0	0	0	508	507	0	574	38	28	
14	0	0	0	0	508	508	0	575	38	29	
15	0	0	0	0	510	508	0	563	38	30	
0	0	0	0	0	508	507	0	537	38	30	
1	0	0	0	0	509	506	0	526	38	29	
2	0	0	0	0	510	507	0	531	38	27	
3	0	0	0	0	510	507	0	529	38	26	
4	0	0	0	0	509	508	0	523	38	26	
5	0	0	0	0	510	506	0	499	38	28	
6	0	0	0	0	511	506	0	489	38	29	
7	0	0	0	0	510	508	0	482	38	29	
8	0	0	0	0	509	509	0	478	38	30	
9	0	0	0	0	509	510	0	469	38	29	
10	0	0	0	0	509	508	0	453	38	28	
11	0	0	0	0	509	507	0	452	38	26	
12	0	0	0	0	508	507	0	455	38	26	
13	0	0	0	0	508	509	0	460	38	27	
14	0	0	0	0	509	509	0	474	38	28	
15	0	0	0	0	509	509	0	481	38	29	
0	0	0	0	0	510	509	0	496	38	30	
1	0	0	0	0	507	508	0	519	38	29	
2	0	0	0	0	509	508	0	535	38	28	
3	0	0	0	0	511	507	0	539	38	27	
4	0	0	0	0	508	509	0	523	38	26	
5	0	0	0	0	508	510	0	516	38	27	
6	0	0	0	0	510	511	0	521	38	28	
7	0	0	0	0	508	511	0	528	38	29	
8	0	0	0	0	506	508	0	506	38	30	
9	0	0	0	0	506	509	0	483	38	30	
10	0	0	0	0	509	507	0	466	38	29	
11	0	0	0	0	511	508	0	460	38	27	
12	0	0	0	0	509	508	0	453	38	26	
13	0	0	0	0	507	507	0	435	38	26	
14	0	0	0	0	510	505	0	429	38	27	
15	0	0	0	0	510	507	0	433	38	29	
0	0	0	0	0	509	507	0	436	38	29	
1	0	0	0	0	511	506	0	449	38	30	
2	0	0	0	0	508	507	0	457	38	29	
3	0	0	0	0	508	508	0	460	38	28	
4	0	0	0	0	510	510	0	481	38	26	
5	0	0	0	0	510	511	0	502	38	26	
6	0	0	0	0	512	509	0	527	38	27	
7	0	0	0	0	509	508	0	546	38	28	
8	0	0	0	0	509	507	0	536	38	29	
9	0	0	0	0	509	507	0	522	38	30	
10	0	0	0	0	510	505	0	514	38	29	
11	0	0	0	0	507	507	0	515	38	28	
12	0	0	0	0	509	507	0	530	38	27	
13	0	0	0	0	509	506	0	541	38	26	
14	0	0	0	0	508	506	0	567	38	26	
15	0	0	0	0	509	506	0	571	38	28	
0	0	0	0	0	509	508	0	574	38	29	
1	0	0	0	0	510	509	0	562	38	29	
2	0	0	0	0	507	509	0	521	38	30	
3	0	0	0	0	507	510	0	495	38	28	
4	0	0	0	0	508	509	0	479	38	27	
5	0	0	0	0	509	508	0	483	38	26	
6	0	0	0	0	509	507	0	496	38	26	
7	0	0	0	0	509	508	0	504	38	27	
8	0	0	0	0	510	508	0	516	38	28	
9	0	0	0	0	511	506	0	523	38	29	
10	0	0	0	0	508	507	0	532	38	30	
11	0	0	0	0	511	506	0	542	38	29	
12	0	0	0	0	511	506	0	535	38	27	
13	0	0	0	0	509	508	0	525	38	26	
14	0	0	0	0	511	508	0	507	38	26	
15	0	0	0	0	511	509	0	487	38	27	
0	0	0	0	0	509	508	0	474	38	28	
1	0	0	0	0	511	508	0	482	38	29	
2	0	0	0	0	509	506	0	496	38	29	
3	0	0	0	0	509	505	0	524	39	29	
4	0	0	0	0	508	505	0	540	38	28	
5	0	0	0	0	508	504	0	542	38	26	
6	0	0	0	0	510	506	0	532	38	26	
7	0	0	0	0	509	507	0	524	38	26	
8	0	0	0	0	510	507	0	517	38	28	
9	0	0	0	0	508	508	0	509	38	29	
10	0	0	0	0	508	510	0	492	38	29	
11	0	0	0	0	509	511	0	470	39	29	
12	0	0	0	0	509	509	0	468	38	28	
13	0	0	0	0	509	508	0	454	38	27	
14	0	0	0	0	509	509	0	437	38	26	
15	0	0	0	0	508	508	0	414	38	26	
0	0	0	0	0	508	507	0	386	38	27	
1	0	0	0	0	508	508	0	385	38	28	
2	0	0	0	0	506	510	0	410	38	29	
3	0	0	0	0	507	510	0	443	39	29	
4	0	0	0	0	508	511	0	466	38	29	
5	0	0	0	0	511	510	0	490	38	27	
6	0	0	0	0	511	508	0	529	38	26	
7	0	0	0	0	510	507	0	558	38	26	
8	0	0	0	0	511	508	0	563	38	27	
9	0	0	0	0	510	507	0	553	38	28	
10	0	0	0	0	510	507	0	541	38	29	
11	0	0	0	0	509	508	0	546	39	29	
12	0	0	0	0	509	509	0	551	38	29	
13	0	0	0	0	510	508	0	527	38	28	
14	0	0	0	0	508	509	0	525	38	26	
15	0	0	0	0	507	510	0	528	38	26	
0	0	0	0	0	507	509	0	534	38	26	
1	0	0	0	0	508	511	0	535	38	27	
2	0	0	0	0	508	510	0	524	38	28	
3	0	0	0	0	510	508	0	522	38	29	
4	0	0	0	0	508	508	0	524	38	29	
5	0	0	0	0	510	507	0	536	38	28	
6	0	0	0	0	508	507	0	539	38	27	
7	0	0	0	0	509	508	0	542	38	26	
8	0	0	0	0	512	509	0	539	38	26	
9	0	0	0	0	508	509	0	529	38	27	
10	0	0	0	0	508	507	0	532	38	28	
11	0	0	0	0	509	507	0	532	38	29	
12	0	0	0	0	509	504	0	505	38	29	
13	0	0	0	0	510	505	0	485	38	29	
14	0	0	0	0	509	505	0	476	38	27	
15	0	0	0	0	510	509	0	479	38	26	
0	0	0	0	0	508	508	0	495	38	26	
1	0	0	0	0	510	507	0	507	38	27	
2	0	0	0	0	509	508	0	517	38	28	
3	0	0	0	0	509	508	0	526	38	29	
4	0	0	0	0	509	509	0	546	38	29	
5	0	0	0	0	511	509	0	568	38	29	
6	0	0	0	0	509	508	0	573	38	28	
7	0	0	0	0	509	509	0	571	38	26	
8	0	0	0	0	509	509	0	558	38	25	
9	0	0	0	0	509	509	0	562	38	26	
10	0	0	0	0	509	509	0	573	38	27	
11	0	0	0	0	507	508	0	573	38	28	
12	0	0	0	0	508	508	0	539	38	29	
13	0	0	0	0	510	508	0	501	38	29	
14	0	0	0	0	508	508	0	475	38	28	
15	0	0	0	0	509	509	0	466	38	27	
0	0	0	0	0	509	508	0	479	38	26	
1	0	0	0	0	508	508	0	485	38	26	
2	0	0	0	0	507	509	0	473	38	27	
3	0	0	0	0	508	507	0	479	38	28	
4	0	0	0	0	511	507	0	483	38	29	
5	0	0	0	0	509	507	0	486	38	29	
6	0	0	0	0	510	506	0	487	38	28	
7	0	0	0	0	508	508	0	486	38	27	
8	0	0	0	0	509	507	0	487	38	26	
9	0	0	0	0	510	507	0	487	38	25	
10	0	0	0	0	511	508	0	484	38	26	
11	0	0	0	0	510	508	0	480	39	28	
12	0	0	0	0	508	508	0	464	38	29	
13	0	0	0	0	509	509	0	461	38	29	
14	0	0	0	0	509	509	0	461	38	29	
15	0	0	0	0	509	508	0	460	38	28	
0	0	0	0	0	508	508	0	462	38	26	
1	0	0	0	0	509	508	0	463	38	25	
2	0	0	0	0	510	509	0	491	38	26	
3	0	0	0	0	511	509	0	517	38	27	
4	0	0	0	0	510	508	0	531	38	28	
5	0	0	0	0	510	506	0	536	38	29	
6	0	0	0	0	507	505	0	532	38	29	
7	0	0	0	0	510	506	0	535	38	28	
8	0	0	0	0	509	505	0	530	38	27	
9	0	0	0	0	508	506	0	519	38	25	
10	0	0	0	0	508	507	0	511	38	26	
11	0	0	0	0	510	505	0	495	38	27	
12	0	0	0	0	511	508	0	497	38	28	
13	0	0	0	0	510	508	0	517	38	29	
14	0	0	0	0	510	507	0	535	38	29	
15	0	0	0	0	509	506	0	532	38	28	
0	0	0	0	0	509	506	0	513	38	27	
1	0	0	0	0	509	507	0	505	38	26	
2	0	0	0	0	508	507	0	500	38	25	
3	0	0	0	0	509	507	0	492	39	26	
4	0	0	0	0	508	507	0	477	38	28	
5	0	0	0	0	510	507	0	468	38	29	
6	0	0	0	0	511	508	0	486	38	29	
7	0	0	0	0	509	507	0	505	38	29	
8	0	0	0	0	510	508	0	524	38	28	
9	0	0	0	0	509	505	0	540	38	26	
10	0	0	0	0	511	506	0	548	38	25	
11	0	0	0	0	510	507	0	568	38	26	
12	0	0	0	0	510	507	0	583	38	27	
13	0	0	0	0	511	508	0	587	38	28	
14	0	0	0	0	507	508	0	585	38	29	
15	0	0	0	0	508	507	0	572	38	29	
0	0	0	0	0	509	506	0	560	38	28	
1	0	0	0	0	510	507	0	550	38	27	
2	0	0	0	0	510	506	0	538	38	25	
3	0	0	0	0	507	507	0	525	38	26	
4	0	0	0	0	510	505	0	503	38	27	
5	0	0	0	0	508	506	0	495	38	28	
6	0	0	0	0	508	507	0	502	38	29	
7	0	0	0	0	508	507	0	507	38	29	
8	0	0	0	0	507	507	0	514	38	28	
9	0	0	0	0	508	507	0	504	38	27	
10	0	0	0	0	511	506	0	501	38	26	
11	0	0	0	0	508	505	0	505	38	25	
12	0	0	0	0	511	505	0	513	38	26	
13	0	0	0	0	510	506	0	515	38	28	
14	0	0	0	0	510	507	0	496	38	29	
15	0	0	0	0	508	508	0	488	38	29	
0	0	0	0	0	508	508	0	493	38	29	
1	0	0	0	0	509	508	0	497	38	28	
2	0	0	0	0	510	508	0	488	38	26	
3	0	0	0	0	508	507	0	454	38	25	
4	0	0	0	0	510	508	0	433	38	26	
5	0	0	0	0	509	509	0	429	38	27	
6	0	0	0	0	508	509	0	442	38	28	
7	0	0	0	0	508	509	0	448	38	29	
8	0	0	0	0	509	509	0	467	38	29	
9	0	0	0	0	510	508	0	494	38	28	
10	0	0	0	0	510	508	0	514	38	27	
11	0	0	0	0	510	510	0	532	38	25	
12	0	0	0	0	510	510	0	542	38	26	
13	0	0	0	0	510	509	0	537	38	27	
14	0	0	0	0	510	510	0	540	38	28	
15	0	0	0	0	509	510	0	552	38	29	
0	0	0	0	0	509	509	0	580	38	29	
1	0	0	0	0	510	508	0	586	38	28	
2	0	0	0	0	511	508	0	576	38	27	
3	0	0	0	0	509	508	0	574	39	26	
4	0	0	0	0	508	511	0	567	38	25	
5	0	0	0	0	507	512	0	556	38	26	
6	0	0	0	0	509	511	0	557	38	28	
7	0	0	0	0	509	511	0	537	38	28	
8	0	0	0	0	510	508	0	519	38	29	
9	0	0	0	0	508	509	0	519	38	29	
10	0	0	0	0	512	508	0	524	38	28	
11	0	0	0	0	510	510	0	517	39	26	
12	0	0	0	0	511	509	0	503	38	25	
13	0	0	0	0	509	508	0	513	38	26	
14	0	0	0	0	509	509	0	537	38	27	
15	0	0	0	0	509	509	0	562	38	28	
0	0	0	0	0	509	510	0	548	38	29	
1	0	0	0	0	508	509	0	528	38	29	
2	0	0	0	0	510	508	0	524	38	28	
3	0	0	0	0	509	509	0	536	39	27	
4	0	0	0	0	510	510	0	546	38	25	
5	0	0	0	0	508	508	0	552	38	26	
6	0	0	0	0	509	508	0	531	38	27	
7	0	0	0	0	508	507	0	526	38	28	
8	0	0	0	0	510	508	0	532	38	29	
9	0	0	0	0	507	507	0	536	38	29	
10	0	0	0	0	511	508	0	520	38	28	
11	0	0	0	0	511	508	0	503	38	27	
12	0	0	0	0	513	509	0	511	38	26	
13	0	0	0	0	508	510	0	521	38	25	
14	0	0	0	0	510	510	0	534	38	26	
15	0	0	0	0	509	511	0	537	38	28	
0	0	0	0	0	509	511	0	528	38	29	
1	0	0	0	0	508	510	0	535	38	29	
2	0	0	0	0	508	511	0	555	38	29	
3	0	0	0	0	509	510	0	568	38	28	
4	0	0	0	0	508	509	0	567	38	26	
5	0	0	0	0	507	510	0	560	38	25	
6	0	0	0	0	508	510	0	566	38	26	
7	0	0	0	0	509	510	0	567	38	27	
8	0	0	0	0	510	511	0	562	38	28	
9	0	0	0	0	512	510	0	553	38	29	
10	0	0	0	0	511	509	0	523	38	29	
11	0	0	0	0	508	508	0	518	38	28	
12	0	0	0	0	509	507	0	524	38	27	
13	0	0	0	0	509	507	0	530	38	25	
14	0	0	0	0	509	505	0	533	38	26	
15	0	0	0	0	510	504	0	521	38	27	
0	0	0	0	0	509	506	0	526	38	28	
1	0	0	0	0	509	505	0	536	38	29	
2	0	0	0	0	510	507	0	540	38	29	
3	0	0	0	0	510	508	0	528	38	28	
4	0	0	0	0	508	509	0	507	38	27	
5	0	0	0	0	510	507	0	490	38	26	
6	0	0	0	0	510	506	0	476	38	25	
7	0	0	0	0	510	505	0	477	38	26	
8	0	0	0	0	508	505	0	475	38	28	
9	0	0	0	0	510	508	0	462	38	29	
10	0	0	0	0	508	507	0	469	38	29	
11	0	0	0	0	510	508	0	492	39	29	
12	0	0	0	0	509	508	0	525	38	28	
13	0	0	0	0	509	507	0	521	38	26	
14	0	0	0	0	510	507	0	495	38	25	
15	0	0	0	0	509	508	0	483	38	26	
0	0	0	0	0	509	508	0	468	38	27	
1	0	0	0	0	510	506	0	472	38	28	
2	0	0	0	0	508	506	0	468	38	29	
3	0	0	0	0	507	510	0	449	39	29	
4	0	0	0	0	509	511	0	440	38	28	
5	0	0	0	0	507	513	0	433	38	27	
6	0	0	0	0	508	512	0	429	38	25	
7	0	0	0	0	509	511	0	442	38	26	
8	0	0	0	0	509	511	0	459	38	27	
9	0	0	0	0	510	509	0	471	38	28	
10	0	0	0	0	508	509	0	485	38	29	
11	0	0	0	0	509	508	0	499	39	29	
12	0	0	0	0	508	505	0	497	38	28	
13	0	0	0	0	510	505	0	476	38	27	
14	0	0	0	0	507	505	0	464	38	26	
15	0	0	0	0	509	505	0	456	38	25	
0	0	0	0	0	508	506	0	452	38	26	
1	0	0	0	0	509	506	0	456	38	28	
2	0	0	0	0	510	508	0	467	38	29	
3	0	0	0	0	509	508	0	487	39	29	
4	0	0	0	0	509	508	0	502	38	29	
5	0	0	0	0	510	509	0	521	38	28	
6	0	0	0	0	510	512	0	526	38	26	
7	0	0	0	0	510	511	0	540	38	25	
8	0	0	0	0	509	511	0	562	38	26	
9	0	0	0	0	508	509	0	580	38	27	
10	0	0	0	0	508	508	0	583	38	28	
11	0	0	0	0	509	508	0	584	39	29	
12	0	0	0	0	509	509	0	581	38	29	
13	0	0	0	0	509	508	0	584	38	28	
14	0	0	0	0	509	508	0	587	38	27	
15	0	0	0	0	509	508	0	603	38	25	
0	0	0	0	0	508	508	0	609	38	26	
1	0	0	0	0	508	508	0	609	38	27	
2	0	0	0	0	510	509	0	610	38	28	
3	0	0	0	0	510	507	0	599	39	29	
4	0	0	0	0	510	507	0	571	38	29	
5	0	0	0	0	508	507	0	554	38	28	
6	0	0	0	0	509	506	0	536	38	27	
7	0	0	0	0	508	506	0	530	38	26	
8	0	0	0	0	511	507	0	526	38	25	
9	0	0	0	0	509	506	0	525	38	26	
10	0	0	0	0	510	507	0	527	38	28	
11	0	0	0	0	508	508	0	511	38	29	
12	0	0	0	0	508	509	0	527	38	29	
13	0	0	0	0	510	509	0	534	38	29	
14	0	0	0	0	508	510	0	546	38	28	
15	0	0	0	0	509	510	0	544	38	26	
0	0	0	0	0	510	510	0	530	38	25	
1	0	0	0	0	507	509	0	530	38	26	
2	0	0	0	0	509	508	0	537	38	27	
3	0	0	0	0	509	507	0	534	38	28	
4	0	0	0	0	511	506	0	528	38	29	
5	0	0	0	0	509	508	0	502	38	29	
6	0	0	0	0	511	507	0	505	38	28	
7	0	0	0	0	512	508	0	508	38	27	
8	0	0	0	0	511	508	0	507	38	25	
9	0	0	0	0	510	510	0	501	38	26	
10	0	0	0	0	507	511	0	492	38	27	
11	0	0	0	0	508	511	0	500	38	28	
12	0	0	0	0	510	509	0	504	38	29	
13	0	0	0	0	508	508	0	504	37	29	
14	0	0	0	0	511	507	0	506	38	28	
15	0	0	0	0	509	506	0	489	38	27	
0	0	0	0	0	509	507	0	475	38	26	
1	0	0	0	0	508	504	0	462	38	25	
2	0	0	0	0	508	504	0	448	38	26	
3	0	0	0	0	510	506	0	441	38	28	
4	0	0	0	0	508	508	0	428	38	29	
5	0	0	0	0	509	507	0	421	38	29	
6	0	0	0	0	510	505	0	421	38	29	
7	0	0	0	0	507	506	0	422	38	28	
8	0	0	0	0	508	508	0	427	38	26	
9	0	0	0	0	509	508	0	429	39	25	
10	0	0	0	0	509	508	0	444	39	26	
11	0	0	0	0	511	510	0	470	39	27	
12	0	0	0	0	511	511	0	497	39	28	
13	0	0	0	0	510	511	0	498	39	29	
14	0	0	0	0	509	510	0	490	38	29	
15	0	0	0	0	508	510	0	502	38	28	
0	0	0	0	0	510	508	0	511	39	26	
1	0	0	0	0	510	507	0	508	38	25	
2	0	0	0	0	508	507	0	506	38	26	
3	0	0	0	0	506	505	0	509	39	27	
4	0	0	0	0	506	506	0	492	38	28	
5	0	0	0	0	510	507	0	478	38	29	
6	0	0	0	0	510	508	0	475	38	29	
7	0	0	0	0	508	506	0	452	38	28	
8	0	0	0	0	510	505	0	420	38	27	
9	0	0	0	0	510	504	0	411	38	26	
10	0	0	0	0	509	505	0	426	38	25	
11	0	0	0	0	509	506	0	451	38	26	
12	0	0	0	0	509	506	0	451	38	28	
13	0	0	0	0	508	507	0	443	38	28	
14	0	0	0	0	510	507	0	442	38	29	
15	0	0	0	0	509	508	0	441	38	29	
0	0	0	0	0	510	507	0	452	38	28	
1	0	0	0	0	510	508	0	464	38	26	
2	0	0	0	0	507	508	0	474	38	25	
3	0	0	0	0	509	508	0	491	39	26	
4	0	0	0	0	511	507	0	516	38	27	
5	0	0	0	0	510	507	0	533	38	28	
6	0	0	0	0	508	507	0	525	38	29	
7	0	0	0	0	511	507	0	514	38	29	
8	0	0	0	0	509	509	0	507	38	28	
9	0	0	0	0	508	510	0	503	38	27	
10	0	0	0	0	509	508	0	491	38	25	
11	0	0	0	0	509	509	0	490	38	26	
12	0	0	0	0	510	508	0	483	38	27	
13	0	0	0	0	510	507	0	480	39	28	
14	0	0	0	0	509	508	0	507	38	29	
15	0	0	0	0	508	508	0	516	38	29	
0	0	0	0	0	508	507	0	529	39	28	
1	0	0	0	0	508	507	0	517	38	27	
2	0	0	0	0	510	508	0	513	38	26	
3	0	0	0	0	509	510	0	515	39	25	
4	0	0	0	0	508	509	0	508	38	26	
5	0	0	0	0	510	510	0	508	38	28	
6	0	0	0	0	509	509	0	504	38	28	
7	0	0	0	0	511	510	0	525	38	29	
8	0	0	0	0	511	508	0	546	38	29	
9	0	0	0	0	509	507	0	548	38	28	
10	0	0	0	0	508	507	0	542	38	26	
11	0	0	0	0	510	507	0	519	38	25	
12	0	0	0	0	510	505	0	517	38	26	
13	0	0	0	0	511	504	0	527	38	27	
14	0	0	0	0	508	505	0	528	38	28	
15	0	0	0	0	508	506	0	521	38	29	
0	0	0	0	0	508	506	0	513	38	29	
1	0	0	0	0	509	507	0	527	38	28	
2	0	0	0	0	511	507	0	546	38	27	
3	0	0	0	0	510	505	0	544	38	25	
4	0	0	0	0	510	505	0	523	38	26	
5	0	0	0	0	510	506	0	498	38	27	
6	0	0	0	0	508	508	0	498	38	28	
7	0	0	0	0	508	510	0	492	38	29	
8	0	0	0	0	507	509	0	497	38	29	
9	0	0	0	0	508	509	0	502	38	28	
10	0	0	0	0	509	508	0	494	38	27	
11	0	0	0	0	507	507	0	508	38	26	
12	0	0	0	0	510	506	0	514	38	25	
13	0	0	0	0	506	506	0	519	38	26	
14	0	0	0	0	508	505	0	526	38	28	
15	0	0	0	0	510	504	0	522	38	28	
0	0	0	0	0	510	505	0	533	38	29	
1	0	0	0	0	509	509	0	537	38	29	
2	0	0	0	0	509	510	0	529	38	28	
3	0	0	0	0	511	509	0	518	38	26	
4	0	0	0	0	509	507	0	504	38	25	
5	0	0	0	0	509	509	0	504	38	26	
6	0	0	0	0	512	508	0	513	38	27	
7	0	0	0	0	510	509	0	516	38	28	
8	0	0	0	0	509	509	0	513	38	29	
9	0	0	0	0	510	510	0	509	38	29	
10	0	0	0	0	510	511	0	522	38	28	
11	0	0	0	0	510	510	0	534	38	27	
12	0	0	0	0	510	510	0	544	38	25	
13	0	0	0	0	509	511	0	543	38	26	
14	0	0	0	0	510	511	0	542	38	27	
15	0	0	0	0	510	511	0	541	38	28	
0	0	0	0	0	509	510	0	530	38	29	
1	0	0	0	0	507	510	0	523	38	29	
2	0	0	0	0	508	510	0	489	38	28	
3	0	0	0	0	509	510	0	466	39	27	
4	0	0	0	0	507	510	0	446	39	26	
5	0	0	0	0	509	510	0	446	38	25	
6	0	0	0	0	506	509	0	460	38	26	
7	0	0	0	0	509	511	0	453	39	28	
8	0	0	0	0	510	511	0	441	38	29	
9	0	0	0	0	511	510	0	444	38	29	
10	0	0	0	0	511	509	0	465	39	29	
11	0	0	0	0	512	507	0	495	39	28	
12	0	0	0	0	509	505	0	510	38	26	
13	0	0	0	0	510	505	0	499	39	25	
14	0	0	0	0	511	507	0	480	39	26	
15	0	0	0	0	509	507	0	470	38	27	
0	0	0	0	0	508	508	0	486	38	28	
1	0	0	0	0	508	508	0	489	39	29	
2	0	0	0	0	511	508	0	475	38	29	
3	0	0	0	0	510	508	0	481	38	28	
4	0	0	0	0	508	507	0	495	38	27	
5	0	0	0	0	509	505	0	493	38	26	
6	0	0	0	0	508	506	0	483	38	26	
7	0	0	0	0	510	504	0	473	38	27	
8	0	0	0	0	510	504	0	482	38	28	
9	0	0	0	0	511	505	0	502	38	29	
10	0	0	0	0	510	504	0	523	38	29	
11	0	0	0	0	509	505	0	535	39	29	
12	0	0	0	0	509	507	0	529	38	27	
13	0	0	0	0	508	507	0	539	38	26	
14	0	0	0	0	510	508	0	551	39	26	
15	0	0	0	0	508	509	0	545	38	26	
0	0	0	0	0	508	509	0	535	38	28	
1	0	0	0	0	509	508	0	533	38	29	
2	0	0	0	0	509	507	0	535	38	29	
3	0	0	0	0	509	507	0	529	39	29	
4	0	0	0	0	508	508	0	523	39	28	
5	0	0	0	0	509	507	0	527	38	26	
6	0	0	0	0	510	508	0	514	38	25	
7	0	0	0	0	509	508	0	510	38	26	
8	0	0	0	0	508	509	0	505	38	27	
9	0	0	0	0	509	510	0	491	38	28	
10	0	0	0	0	509	508	0	490	38	29	
11	0	0	0	0	510	510	0	482	38	29	
12	0	0	0	0	508	509	0	474	38	28	
13	0	0	0	0	509	509	0	472	39	27	
14	0	0	0	0	508	509	0	480	38	26	
15	0	0	0	0	509	508	0	488	38	26	
0	0	0	0	0	509	508	0	489	38	27	
1	0	0	0	0	508	507	0	489	38	28	
2	0	0	0	0	508	508	0	491	38	29	
3	0	0	0	0	511	507	0	498	39	29	
4	0	0	0	0	511	508	0	499	39	29	
5	0	0	0	0	509	509	0	481	38	27	
6	0	0	0	0	509	508	0	472	38	26	
7	0	0	0	0	511	508	0	484	38	26	
8	0	0	0	0	508	507	0	489	38	26	
9	0	0	0	0	511	507	0	476	38	28	
10	0	0	0	0	508	505	0	462	38	29	
11	0	0	0	0	508	505	0	462	38	29	
12	0	0	0	0	512	505	0	466	38	29	
13	0	0	0	0	509	506	0	479	38	28	
14	0	0	0	0	509	507	0	500	38	26	
15	0	0	0	0	508	507	0	519	38	25	
0	0	0	0	0	508	507	0	516	38	26	
1	0	0	0	0	510	508	0	514	38	27	
2	0	0	0	0	510	506	0	521	38	28	
3	0	0	0	0	510	507	0	540	39	29	
4	0	0	0	0	510	505	0	562	38	29	
5	0	0	0	0	509	506	0	581	38	28	
6	0	0	0	0	508	506	0	595	38	27	
7	0	0	0	0	509	507	0	592	38	26	
8	0	0	0	0	509	508	0	577	38	26	
9	0	0	0	0	508	508	0	554	38	27	
10	0	0	0	0	509	507	0	541	38	28	
11	0	0	0	0	510	507	0	539	39	29	
12	0	0	0	0	507	507	0	542	38	29	
13	0	0	0	0	508	507	0	540	38	29	
14	0	0	0	0	507	508	0	518	38	27	
15	0	0	0	0	510	508	0	508	38	26	
0	0	0	0	0	511	507	0	509	38	26	
1	0	0	0	0	512	507	0	502	38	27	
2	0	0	0	0	507	508	0	492	38	28	
3	0	0	0	0	510	508	0	479	38	29	
4	0	0	0	0	507	506	0	485	38	29	
5	0	0	0	0	509	507	0	500	38	29	
6	0	0	0	0	510	506	0	519	38	28	
7	0	0	0	0	511	505	0	535	38	26	
8	0	0	0	0	511	505	0	544	38	26	
9	0	0	0	0	511	505	0	557	38	26	
10	0	0	0	0	509	506	0	556	38	27	
11	0	0	0	0	509	506	0	549	38	28	
12	0	0	0	0	508	506	0	543	38	29	
13	0	0	0	0	507	508	0	525	38	29	
14	0	0	0	0	510	508	0	526	38	28	
15	0	0	0	0	508	509	0	533	38	27	
0	0	0	0	0	509	508	0	543	38	26	
1	0	0	0	0	509	508	0	548	38	26	
2	0	0	0	0	510	509	0	546	38	27	
3	0	0	0	0	508	510	0	560	38	28	
4	0	0	0	0	508	511	0	564	38	29	
5	0	0	0	0	508	510	0	543	38	29	
6	0	0	0	0	509	508	0	526	38	29	
7	0	0	0	0	509	508	0	519	38	27	
8	0	0	0	0	509	507	0	533	38	26	
9	0	0	0	0	510	507	0	546	38	26	
10	0	0	0	0	510	507	0	554	38	27	
11	0	0	0	0	511	507	0	557	39	28	
12	0	0	0	0	511	507	0	536	38	29	
13	0	0	0	0	508	508	0	523	38	29	
14	0	0	0	0	509	507	0	532	38	29	
15	0	0	0	0	510	507	0	542	38	28	
0	0	0	0	0	510	506	0	537	38	26	
1	0	0	0	0	509	507	0	522	38	26	
2	0	0	0	0	510	507	0	525	38	26	
3	0	0	0	0	511	508	0	533	39	28	
4	0	0	0	0	508	508	0	542	38	29	
5	0	0	0	0	510	508	0	535	38	29	
6	0	0	0	0	509	510	0	502	38	29	
7	0	0	0	0	510	510	0	491	38	28	
8	0	0	0	0	509	510	0	486	38	27	
9	0	0	0	0	508	511	0	474	38	26	
10	0	0	0	0	510	510	0	470	38	26	
11	0	0	0	0	509	509	0	461	39	27	
12	0	0	0	0	508	508	0	465	38	28	
13	0	0	0	0	511	508	0	479	38	29	
14	0	0	0	0	508	509	0	503	38	29	
15	0	0	0	0	506	509	0	492	38	29	
0	0	0	0	0	508	509	0	479	38	27	
1	0	0	0	0	508	511	0	476	38	26	
2	0	0	0	0	512	510	0	468	38	26	
3	0	0	0	0	509	509	0	469	38	27	
4	0	0	0	0	508	509	0	469	38	28	
5	0	0	0	0	508	509	0	464	38	29	
6	0	0	0	0	508	508	0	461	38	29	
7	0	0	0	0	510	508	0	469	38	29	
8	0	0	0	0	508	508	0	496	38	28	
9	0	0	0	0	510	508	0	520	38	26	
10	0	0	0	0	510	508	0	535	38	26	
11	0	0	0	0	510	507	0	536	38	26	
12	0	0	0	0	509	507	0	529	38	28	
13	0	0	0	0	510	506	0	528	38	29	
14	0	0	0	0	508	508	0	515	38	29	
15	0	0	0	0	508	509	0	497	38	29	
0	0	0	0	0	509	509	0	504	38	28	
1	0	0	0	0	512	510	0	516	38	27	
2	0	0	0	0	510	510	0	523	38	26	
3	0	0	0	0	510	509	0	524	38	26	
4	0	0	0	0	510	509	0	511	38	27	
5	0	0	0	0	510	508	0	515	38	28	
6	0	0	0	0	509	506	0	514	38	29	
7	0	0	0	0	511	506	0	505	38	30	
8	0	0	0	0	508	505	0	485	38	29	
9	0	0	0	0	509	505	0	476	38	27	
10	0	0	0	0	508	505	0	485	38	26	
11	0	0	0	0	507	507	0	508	39	26	
12	0	0	0	0	511	509	0	530	38	27	
13	0	0	0	0	511	511	0	542	38	28	
14	0	0	0	0	511	510	0	539	38	29	
15	0	0	0	0	508	508	0	540	38	29	
0	0	0	0	0	509	508	0	537	38	29	
1	0	0	0	0	512	508	0	530	38	28	
2	0	0	0	0	509	509	0	512	38	27	
3	0	0	0	0	510	508	0	489	39	26	
4	0	0	0	0	509	508	0	494	38	26	
5	0	0	0	0	510	507	0	521	38	28	
6	0	0	0	0	508	508	0	529	38	29	
7	0	0	0	0	506	507	0	536	38	29	
8	0	0	0	0	508	507	0	521	38	29	
9	0	0	0	0	509	507	0	520	38	28	
10	0	0	0	0	510	507	0	531	38	27	
11	0	0	0	0	509	507	0	532	39	26	
12	0	0	0	0	509	510	0	527	38	26	
13	0	0	0	0	508	509	0	529	38	27	
14	0	0	0	0	511	508	0	531	38	28	
15	0	0	0	0	510	507	0	536	38	29	
0	0	0	0	0	508	506	0	541	38	30	
1	0	0	0	0	509	506	0	535	38	29	
2	0	0	0	0	509	508	0	526	38	28	
3	0	0	0	0	506	509	0	492	38	26	
4	0	0	0	0	509	508	0	483	38	26	
5	0	0	0	0	508	509	0	483	38	27	
6	0	0	0	0	509	508	0	480	38	28	
7	0	0	0	0	510	509	0	481	38	29	
8	0	0	0	0	511	510	0	489	38	30	
9	0	0	0	0	511	510	0	499	38	29	
10	0	0	0	0	511	509	0	513	38	28	
11	0	0	0	0	508	510	0	535	38	27	
12	0	0	0	0	510	509	0	545	38	26	
13	0	0	0	0	509	508	0	539	38	27	
14	0	0	0	0	511	509	0	545	38	28	
15	0	0	0	0	510	508	0	550	38	29	
0	0	0	0	0	508	508	0	552	38	29	
1	0	0	0	0	509	506	0	541	38	30	
2	0	0	0	0	506	507	0	544	38	29	
3	0	0	0	0	509	507	0	557	38	27	
4	0	0	0	0	508	508	0	563	38	26	
5	0	0	0	0	509	507	0	572	38	26	
6	0	0	0	0	510	508	0	577	38	27	
7	0	0	0	0	509	507	0	531	38	28	
8	0	0	0	0	509	506	0	487	38	29	
9	0	0	0	0	510	508	0	477	38	30	
10	0	0	0	0	510	510	0	463	38	29	
11	0	0	0	0	509	509	0	441	38	28	
12	0	0	0	0	511	509	0	449	38	26	
13	0	0	0	0	509	508	0	467	38	26	
14	0	0	0	0	508	509	0	483	38	27	
15	0	0	0	0	509	508	0	495	38	28	
0	0	0	0	0	508	508	0	500	38	29	
1	0	0	0	0	508	508	0	528	38	30	
2	0	0	0	0	509	509	0	555	38	29	
3	0	0	0	0	509	511	0	579	38	28	
4	0	0	0	0	509	510	0	566	38	27	
5	0	0	0	0	508	509	0	552	38	26	
6	0	0	0	0	509	510	0	552	38	27	
7	0	0	0	0	510	511	0	544	38	28	
8	0	0	0	0	508	510	0	526	38	29	
9	0	0	0	0	508	511	0	506	38	30	
10	0	0	0	0	509	510	0	489	38	30	
11	0	0	0	0	508	512	0	490	39	29	
12	0	0	0	0	511	510	0	508	38	27	
13	0	0	0	0	505	511	0	524	38	26	
14	0	0	0	0	511	511	0	544	38	26	
15	0	0	0	0	509	512	0	547	38	28	
0	0	0	0	0	509	512	0	545	38	29	
1	0	0	0	0	512	514	0	529	38	29	
2	0	0	0	0	511	512	0	513	38	30	
3	0	0	0	0	509	511	0	500	39	29	
4	0	0	0	0	508	510	0	488	38	28	
5	0	0	0	0	508	510	0	493	38	26	
6	0	0	0	0	509	510	0	517	38	26	
7	0	0	0	0	509	507	0	540	38	27	
8	0	0	0	0	508	508	0	552	38	28	
9	0	0	0	0	509	505	0	563	38	29	
10	0	0	0	0	510	508	0	577	38	30	
11	0	0	0	0	510	508	0	582	39	30	
12	0	0	0	0	510	510	0	572	38	28	
13	0	0	0	0	510	510	0	556	38	27	
14	0	0	0	0	507	508	0	516	38	26	
15	0	0	0	0	509	509	0	481	38	27	
0	0	0	0	0	511	508	0	467	38	28	
1	0	0	0	0	509	507	0	468	38	29	
2	0	0	0	0	508	507	0	467	38	30	
3	0	0	0	0	508	507	0	444	38	30	
4	0	0	0	0	509	507	0	440	38	29	
5	0	0	0	0	511	510	0	453	38	27	
6	0	0	0	0	509	510	0	461	38	26	
7	0	0	0	0	508	509	0	466	38	27	
8	0	0	0	0	509	508	0	477	38	28	
9	0	0	0	0	507	508	0	480	38	29	
10	0	0	0	0	510	508	0	470	38	30	
11	0	0	0	0	509	509	0	463	39	30	
12	0	0	0	0	508	509	0	448	38	29	
13	0	0	0	0	509	510	0	436	38	28	
14	0	0	0	0	508	510	0	439	38	27	
15	0	0	0	0	508	510	0	450	38	26	
0	0	0	0	0	510	510	0	478	38	27	
1	0	0	0	0	508	510	0	491	38	29	
2	0	0	0	0	508	510	0	484	38	29	
3	0	0	0	0	508	507	0	491	38	30	
4	0	0	0	0	508	508	0	503	38	30	
5	0	0	0	0	508	507	0	510	38	29	
6	0	0	0	0	509	508	0	523	38	27	
7	0	0	0	0	511	507	0	524	38	26	
8	0	0	0	0	511	507	0	505	38	27	
9	0	0	0	0	509	508	0	505	38	28	
10	0	0	0	0	508	508	0	499	38	29	
11	0	0	0	0	508	507	0	486	38	30	
12	0	0	0	0	508	508	0	484	38	30	
13	0	0	0	0	509	508	0	498	38	29	
14	0	0	0	0	510	509	0	520	38	28	
15	0	0	0	0	510	509	0	543	38	27	
0	0	0	0	0	512	509	0	542	38	27	
1	0	0	0	0	509	508	0	532	38	28	
2	0	0	0	0	510	508	0	520	38	29	
3	0	0	0	0	508	507	0	497	38	30	
4	0	0	0	0	508	506	0	490	38	30	
5	0	0	0	0	510	507	0	477	38	30	
6	0	0	0	0	510	508	0	460	38	28	
7	0	0	0	0	508	509	0	456	38	27	
8	0	0	0	0	508	510	0	462	38	27	
9	0	0	0	0	509	509	0	473	38	28	
10	0	0	0	0	509	509	0	485	38	29	
11	0	0	0	0	510	509	0	488	38	30	
12	0	0	0	0	511	509	0	497	38	30	
13	0	0	0	0	510	509	0	503	38	30	
14	0	0	0	0	510	509	0	510	38	29	
15	0	0	0	0	509	508	0	514	38	27	
0	0	0	0	0	510	508	0	505	38	27	
1	0	0	0	0	509	509	0	518	38	27	
2	0	0	0	0	510	508	0	533	38	28	
3	0	0	0	0	506	507	0	547	38	29	
4	0	0	0	0	508	508	0	552	38	30	
5	0	0	0	0	509	506	0	539	38	30	
6	0	0	0	0	510	508	0	546	38	29	
7	0	0	0	0	508	510	0	544	38	28	
8	0	0	0	0	507	509	0	553	38	27	
9	0	0	0	0	510	509	0	557	38	27	
10	0	0	0	0	513	508	0	527	38	28	
11	0	0	0	0	513	508	0	506	38	29	
12	0	0	0	0	510	508	0	487	38	30	
13	0	0	0	0	508	510	0	476	38	30	
14	0	0	0	0	508	509	0	459	38	30	
15	0	0	0	0	508	508	0	440	38	28	
0	0	0	0	0	511	508	0	456	38	27	
1	0	0	0	0	508	508	0	479	38	27	
2	0	0	0	0	509	507	0	508	38	28	
3	0	0	0	0	511	507	0	518	39	29	
4	0	0	0	0	511	507	0	520	38	30	
5	0	0	0	0	510	506	0	535	38	30	
6	0	0	0	0	510	505	0	537	38	30	
7	0	0	0	0	508	506	0	535	38	29	
8	0	0	0	0	507	508	0	530	38	27	
9	0	0	0	0	508	507	0	515	38	27	
10	0	0	0	0	507	507	0	507	38	27	
11	0	0	0	0	510	507	0	510	39	29	
12	0	0	0	0	509	507	0	524	38	30	
13	0	0	0	0	508	506	0	527	38	30	
14	0	0	0	0	509	506	0	513	38	30	
15	0	0	0	0	507	506	0	512	38	29	
0	0	0	0	0	509	506	0	510	38	28	
1	0	0	0	0	507	505	0	510	38	27	
2	0	0	0	0	507	508	0	506	38	27	
3	0	0	0	0	509	509	0	499	39	28	
4	0	0	0	0	507	509	0	510	38	29	
5	0	0	0	0	510	508	0	516	38	30	
6	0	0	0	0	509	507	0	520	38	31	
7	0	0	0	0	509	506	0	519	38	30	
8	0	0	0	0	509	504	0	514	38	28	
9	0	0	0	0	509	505	0	525	38	27	
10	0	0	0	0	510	508	0	549	38	27	
11	0	0	0	0	509	508	0	562	38	28	
12	0	0	0	0	509	509	0	554	38	29	
13	0	0	0	0	510	509	0	532	38	30	
14	0	0	0	0	511	509	0	524	38	31	
15	0	0	0	0	510	508	0	524	38	30	
0	0	0	0	0	510	508	0	532	38	29	
1	0	0	0	0	509	510	0	521	38	28	
2	0	0	0	0	510	509	0	504	38	27	
3	0	0	0	0	510	508	0	506	39	28	
4	0	0	0	0	509	509	0	512	38	29	
5	0	0	0	0	507	507	0	524	38	30	
6	0	0	0	0	510	506	0	534	38	30	
7	0	0	0	0	508	505	0	522	38	31	
8	0	0	0	0	510	505	0	522	38	30	
9	0	0	0	0	510	504	0	531	38	28	
10	0	0	0	0	510	505	0	539	38	27	
11	0	0	0	0	508	505	0	539	38	27	
12	0	0	0	0	510	504	0	524	38	28	
13	0	0	0	0	510	505	0	519	38	30	
14	0	0	0	0	510	506	0	513	38	30	
15	0	0	0	0	511	506	0	519	38	31	
0	0	0	0	0	511	507	0	524	38	30	
1	0	0	0	0	508	508	0	514	38	29	
2	0	0	0	0	508	507	0	508	38	27	
3	0	0	0	0	509	507	0	514	38	27	
4	0	0	0	0	508	507	0	525	38	28	
5	0	0	0	0	509	507	0	542	38	29	
6	0	0	0	0	510	507	0	535	38	30	
7	0	0	0	0	508	507	0	529	38	31	
8	0	0	0	0	510	507	0	523	38	30	
9	0	0	0	0	509	507	0	501	38	29	
10	0	0	0	0	510	509	0	484	38	28	
11	0	0	0	0	510	509	0	473	39	27	
12	0	0	0	0	510	510	0	444	38	28	
13	0	0	0	0	506	511	0	422	38	29	
14	0	0	0	0	509	509	0	416	38	30	
15	0	0	0	0	508	506	0	421	38	31	
0	0	0	0	0	509	507	0	414	38	31	
1	0	0	0	0	510	507	0	416	38	30	
2	0	0	0	0	511	506	0	430	38	28	
3	0	0	0	0	511	505	0	448	39	27	
4	0	0	0	0	510	507	0	459	38	28	
5	0	0	0	0	509	506	0	453	38	29	
6	0	0	0	0	508	506	0	464	38	30	
7	0	0	0	0	509	506	0	475	38	31	
8	0	0	0	0	508	506	0	481	38	31	
9	0	0	0	0	508	506	0	496	38	30	
10	0	0	0	0	508	507	0	506	38	29	
11	0	0	0	0	508	506	0	519	39	28	
12	0	0	0	0	507	508	0	536	38	28	
13	0	0	0	0	507	510	0	543	38	28	
14	0	0	0	0	510	510	0	534	38	30	
15	0	0	0	0	509	509	0	523	38	31	
0	0	0	0	0	508	507	0	503	38	31	
1	0	0	0	0	509	507	0	493	38	31	
2	0	0	0	0	509	508	0	494	38	30	
3	0	0	0	0	510	506	0	498	38	28	
4	0	0	0	0	510	506	0	504	38	28	
5	0	0	0	0	509	507	0	506	38	28	
6	0	0	0	0	509	508	0	509	38	29	
7	0	0	0	0	510	506	0	504	38	30	
8	0	0	0	0	508	508	0	498	38	31	
9	0	0	0	0	508	506	0	485	38	31	
10	0	0	0	0	508	507	0	494	38	30	
11	0	0	0	0	509	507	0	513	39	29	
12	0	0	0	0	509	507	0	531	38	28	
13	0	0	0	0	510	506	0	529	38	28	
14	0	0	0	0	509	506	0	517	38	29	
15	0	0	0	0	509	506	0	520	38	30	
0	0	0	0	0	509	505	0	521	38	31	
1	0	0	0	0	509	505	0	527	38	31	
2	0	0	0	0	508	507	0	536	38	31	
3	0	0	0	0	510	506	0	538	39	29	
4	0	0	0	0	509	506	0	549	38	28	
5	0	0	0	0	509	507	0	551	38	28	
6	0	0	0	0	508	508	0	551	38	29	
7	0	0	0	0	507	507	0	526	38	30	
8	0	0	0	0	509	506	0	502	38	31	
9	0	0	0	0	511	506	0	500	38	31	
10	0	0	0	0	508	506	0	506	38	31	
11	0	0	0	0	507	506	0	493	39	30	
12	0	0	0	0	507	507	0	472	38	29	
13	0	0	0	0	509	508	0	467	38	28	
14	0	0	0	0	509	509	0	487	38	29	
15	0	0	0	0	512	510	0	499	38	30	
0	0	0	0	0	510	509	0	504	38	31	
1	0	0	0	0	511	508	0	488	38	31	
2	0	0	0	0	510	507	0	445	38	32	
3	0	0	0	0	511	505	0	415	39	31	
4	0	0	0	0	510	504	0	414	38	29	
5	0	0	0	0	508	505	0	410	38	28	
6	0	0	0	0	510	508	0	429	38	28	
7	0	0	0	0	510	505	0	436	38	30	
8	0	0	0	0	511	506	0	456	38	31	
9	0	0	0	0	508	507	0	484	38	31	
10	0	0	0	0	509	507	0	501	38	32	
11	0	0	0	0	509	508	0	518	39	31	
12	0	0	0	0	510	509	0	510	38	30	
13	0	0	0	0	507	510	0	515	38	29	
14	0	0	0	0	508	510	0	522	38	28	
15	0	0	0	0	508	508	0	516	38	29	
0	0	0	0	0	505	507	0	512	38	30	
1	0	0	0	0	509	508	0	511	38	31	
2	0	0	0	0	511	508	0	519	38	32	
3	0	0	0	0	510	507	0	526	38	32	
4	0	0	0	0	510	509	0	528	38	30	
5	0	0	0	0	511	509	0	531	38	29	
6	0	0	0	0	511	510	0	527	38	28	
7	0	0	0	0	509	510	0	529	38	29	
8	0	0	0	0	510	509	0	543	38	30	
9	0	0	0	0	507	509	0	553	38	31	
10	0	0	0	0	509	508	0	560	38	32	
11	0	0	0	0	508	508	0	561	38	32	
12	0	0	0	0	508	508	0	578	38	31	
13	0	0	0	0	507	508	0	603	38	30	
14	0	0	0	0	508	509	0	608	38	29	
15	0	0	0	0	510	508	0	610	38	29	
0	0	0	0	0	510	507	0	597	38	30	
1	0	0	0	0	508	508	0	592	38	31	
2	0	0	0	0	507	509	0	595	38	32	
3	0	0	0	0	509	507	0	593	38	32	
4	0	0	0	0	510	508	0	581	38	32	
5	0	0	0	0	509	508	0	568	38	30	
6	0	0	0	0	508	508	0	575	38	29	
7	0	0	0	0	510	508	0	561	38	29	
8	0	0	0	0	511	507	0	553	38	30	
9	0	0	0	0	512	506	0	548	38	31	
10	0	0	0	0	511	506	0	536	38	32	
11	0	0	0	0	510	507	0	508	39	32	
12	0	0	0	0	509	509	0	496	38	32	
13	0	0	0	0	507	509	0	494	38	31	
14	0	0	0	0	508	508	0	496	38	29	
15	0	0	0	0	507	509	0	478	38	29	
0	0	0	0	0	509	509	0	479	38	29	
1	0	0	0	0	510	508	0	480	38	31	
2	0	0	0	0	510	507	0	487	38	32	
3	0	0	0	0	509	507	0	505	39	32	
4	0	0	0	0	510	507	0	508	38	32	
5	0	0	0	0	510	508	0	521	38	31	
6	0	0	0	0	510	509	0	544	38	30	
7	0	0	0	0	510	510	0	555	38	29	
8	0	0	0	0	510	511	0	556	38	29	
9	0	0	0	0	512	508	0	540	38	30	
10	0	0	0	0	510	508	0	538	38	31	
11	0	0	0	0	509	509	0	537	39	32	
12	0	0	0	0	509	508	0	539	38	33	
13	0	0	0	0	511	508	0	547	38	32	
14	0	0	0	0	509	508	0	546	38	31	
15	0	0	0	0	508	508	0	540	38	29	
0	0	0	0	0	509	508	0	538	38	29	
1	0	0	0	0	510	509	0	537	38	30	
2	0	0	0	0	509	509	0	534	38	31	
3	0	0	0	0	509	508	0	518	38	32	
4	0	0	0	0	510	506	0	511	38	33	
5	0	0	0	0	509	507	0	508	38	32	
6	0	0	0	0	508	506	0	501	38	31	
7	0	0	0	0	510	507	0	503	38	30	
8	0	0	0	0	509	506	0	490	38	29	
9	0	0	0	0	509	505	0	493	38	30	
10	0	0	0	0	509	508	0	508	38	31	
11	0	0	0	0	509	507	0	518	38	32	
12	0	0	0	0	508	506	0	535	38	33	
13	0	0	0	0	508	507	0	538	38	33	
14	0	0	0	0	508	507	0	533	38	32	
15	0	0	0	0	509	507	0	534	38	30	
0	0	0	0	0	508	506	0	539	38	29	
1	0	0	0	0	508	507	0	541	38	29	
2	0	0	0	0	508	506	0	534	38	31	
3	0	0	0	0	508	505	0	547	38	32	
4	0	0	0	0	511	507	0	559	38	33	
5	0	0	0	0	508	507	0	550	38	33	
6	0	0	0	0	510	507	0	531	38	32	
7	0	0	0	0	509	505	0	502	38	31	
8	0	0	0	0	510	505	0	505	38	30	
9	0	0	0	0	509	506	0	523	38	29	
10	0	0	0	0	509	505	0	534	38	30	
11	0	0	0	0	509	504	0	539	39	31	
12	0	0	0	0	511	504	0	524	38	32	
13	0	0	0	0	510	504	0	527	38	33	
14	0	0	0	0	509	505	0	518	38	33	
15	0	0	0	0	508	505	0	505	38	31	
0	0	0	0	0	510	505	0	507	38	30	
1	0	0	0	0	510	505	0	493	38	29	
2	0	0	0	0	509	504	0	489	38	30	
3	0	0	0	0	509	506	0	476	39	31	
4	0	0	0	0	510	505	0	460	38	32	
5	0	0	0	0	509	507	0	457	39	33	
6	0	0	0	0	509	508	0	450	39	33	
7	0	0	0	0	508	508	0	461	38	32	
8	0	0	0	0	509	507	0	471	38	31	
9	0	0	0	0	508	505	0	466	38	30	
10	0	0	0	0	509	506	0	460	39	30	
11	0	0	0	0	511	505	0	441	39	31	
12	0	0	0	0	508	505	0	442	38	32	
13	0	0	0	0	510	505	0	442	38	33	
14	0	0	0	0	510	504	0	445	38	33	
15	0	0	0	0	511	504	0	442	38	33	
0	0	0	0	0	510	505	0	436	38	31	
1	0	0	0	0	510	506	0	451	39	30	
2	0	0	0	0	510	507	0	470	38	30	
3	0	0	0	0	508	508	0	501	39	31	
4	0	0	0	0	509	507	0	524	39	32	
5	0	0	0	0	508	506	0	523	38	33	
6	0	0	0	0	508	506	0	533	38	33	
7	0	0	0	0	508	506	0	547	38	33	
8	0	0	0	0	509	504	0	545	38	32	
9	0	0	0	0	509	505	0	542	38	30	
10	0	0	0	0	511	505	0	527	38	30	
11	0	0	0	0	509	507	0	528	38	30	
12	0	0	0	0	508	508	0	536	38	32	
13	0	0	0	0	508	507	0	552	38	33	
14	0	0	0	0	509	505	0	559	38	33	
15	0	0	0	0	507	508	0	540	38	33	
0	0	0	0	0	509	507	0	532	38	32	
1	0	0	0	0	510	507	0	531	38	31	
2	0	0	0	0	509	508	0	530	38	30	
3	0	0	0	0	510	510	0	537	39	30	
4	0	0	0	0	509	509	0	540	38	31	
5	0	0	0	0	510	508	0	550	38	32	
6	0	0	0	0	507	509	0	537	38	33	
7	0	0	0	0	507	509	0	524	38	34	
8	0	0	0	0	510	508	0	511	39	33	
9	0	0	0	0	510	507	0	499	38	31	
10	0	0	0	0	511	508	0	498	38	30	
11	0	0	0	0	510	508	0	500	39	30	
12	0	0	0	0	510	508	0	510	38	31	
13	0	0	0	0	508	507	0	513	38	32	
14	0	0	0	0	510	508	0	518	38	33	
15	0	0	0	0	510	507	0	525	38	34	
0	0	0	0	0	508	508	0	528	38	33	
1	0	0	0	0	509	507	0	529	38	32	
2	0	0	0	0	506	507	0	507	39	31	
3	0	0	0	0	511	508	0	475	39	30	
4	0	0	0	0	508	508	0	447	38	31	
5	0	0	0	0	509	507	0	437	38	32	
6	0	0	0	0	509	508	0	431	39	33	
7	0	0	0	0	507	508	0	431	38	34	
8	0	0	0	0	508	507	0	431	39	34	
9	0	0	0	0	508	508	0	446	39	33	
10	0	0	0	0	509	507	0	472	39	31	
11	0	0	0	0	510	508	0	466	39	30	
12	0	0	0	0	510	509	0	465	39	30	
13	0	0	0	0	509	509	0	457	38	31	
14	0	0	0	0	510	510	0	465	38	33	
15	0	0	0	0	513	511	0	486	38	33	
0	0	0	0	0	508	510	0	489	38	34	
1	0	0	0	0	509	509	0	477	38	33	
2	0	0	0	0	510	509	0	467	38	32	
3	0	0	0	0	509	508	0	478	39	30	
4	0	0	0	0	509	508	0	493	38	30	
5	0	0	0	0	510	508	0	499	38	31	
6	0	0	0	0	508	508	0	495	38	32	
7	0	0	0	0	511	508	0	488	38	33	
8	0	0	0	0	509	507	0	493	38	34	
9	0	0	0	0	510	505	0	510	38	33	
10	0	0	0	0	510	507	0	512	38	32	
11	0	0	0	0	511	509	0	504	39	31	
12	0	0	0	0	508	507	0	484	38	30	
13	0	0	0	0	511	507	0	489	38	31	
14	0	0	0	0	507	508	0	506	38	32	
15	0	0	0	0	509	508	0	518	38	33	
0	0	0	0	0	509	508	0	517	38	34	
1	0	0	0	0	510	507	0	502	39	34	
2	0	0	0	0	509	507	0	502	38	33	
3	0	0	0	0	508	507	0	505	38	31	
4	0	0	0	0	508	507	0	496	39	30	
5	0	0	0	0	508	508	0	487	38	31	
6	0	0	0	0	508	508	0	478	38	32	
7	0	0	0	0	506	508	0	488	38	33	
8	0	0	0	0	508	509	0	489	38	34	
9	0	0	0	0	508	508	0	478	38	34	
10	0	0	0	0	508	509	0	480	39	33	
11	0	0	0	0	510	510	0	473	38	32	
12	0	0	0	0	510	508	0	489	38	31	
13	0	0	0	0	507	508	0	507	38	30	
14	0	0	0	0	510	509	0	525	38	31	
15	0	0	0	0	511	507	0	535	38	33	
0	0	0	0	0	511	507	0	524	39	33	
1	0	0	0	0	509	508	0	530	38	34	
2	0	0	0	0	511	508	0	536	38	34	
3	0	0	0	0	510	507	0	523	38	32	
4	0	0	0	0	507	508	0	509	38	31	
5	0	0	0	0	509	510	0	487	38	30	
6	0	0	0	0	508	509	0	474	38	31	
7	0	0	0	0	509	508	0	468	38	32	
8	0	0	0	0	508	507	0	475	38	33	
9	0	0	0	0	509	508	0	491	38	34	
10	0	0	0	0	509	509	0	495	38	34	
11	0	0	0	0	508	510	0	515	38	33	
12	0	0	0	0	508	509	0	530	38	31	
13	0	0	0	0	509	508	0	536	38	30	
14	0	0	0	0	508	509	0	537	38	31	
15	0	0	0	0	508	508	0	511	38	32	
0	0	0	0	0	511	509	0	503	38	33	
1	0	0	0	0	511	510	0	515	38	34	
2	0	0	0	0	509	509	0	529	38	34	
3	0	0	0	0	510	508	0	535	39	33	
4	0	0	0	0	509	508	0	526	38	32	
5	0	0	0	0	507	507	0	522	38	31	
6	0	0	0	0	508	507	0	525	38	30	
7	0	0	0	0	509	508	0	534	38	31	
8	0	0	0	0	509	507	0	545	38	33	
9	0	0	0	0	510	508	0	549	38	34	
10	0	0	0	0	507	509	0	548	38	34	
11	0	0	0	0	509	508	0	547	38	34	
12	0	0	0	0	508	507	0	550	38	33	
13	0	0	0	0	510	507	0	544	38	31	
14	0	0	0	0	508	507	0	530	38	30	
15	0	0	0	0	510	507	0	534	38	31	
0	0	0	0	0	511	509	0	540	38	32	
1	0	0	0	0	510	509	0	553	38	33	
2	0	0	0	0	510	509	0	560	38	34	
3	0	0	0	0	510	509	0	547	38	34	
4	0	0	0	0	508	510	0	550	38	33	
5	0	0	0	0	510	510	0	551	38	32	
6	0	0	0	0	508	509	0	555	38	31	
7	0	0	0	0	508	507	0	551	38	31	
8	0	0	0	0	511	508	0	535	38	32	
9	0	0	0	0	511	505	0	530	38	33	
10	0	0	0	0	512	505	0	521	38	34	
11	0	0	0	0	512	507	0	504	39	34	
12	0	0	0	0	510	508	0	483	38	33	
13	0	0	0	0	510	510	0	453	38	32	
14	0	0	0	0	508	509	0	450	38	31	
15	0	0	0	0	508	508	0	472	38	31	
0	0	0	0	0	509	509	0	496	38	32	
1	0	0	0	0	509	509	0	504	38	33	
2	0	0	0	0	508	509	0	487	38	34	
3	0	0	0	0	509	511	0	496	38	34	
4	0	0	0	0	508	508	0	513	38	34	
5	0	0	0	0	508	508	0	518	38	33	
6	0	0	0	0	508	505	0	525	38	31	
7	0	0	0	0	508	505	0	530	38	30	
8	0	0	0	0	509	505	0	524	38	31	
9	0	0	0	0	509	505	0	516	38	32	
10	0	0	0	0	508	505	0	519	38	33	
11	0	0	0	0	509	508	0	525	38	34	
12	0	0	0	0	511	507	0	536	38	34	
13	0	0	0	0	511	508	0	536	38	33	
14	0	0	0	0	510	507	0	519	38	32	
15	0	0	0	0	509	506	0	505	38	31	
0	0	0	0	0	508	507	0	500	38	31	
1	0	0	0	0	507	508	0	483	38	32	
2	0	0	0	0	509	508	0	476	38	33	
3	0	0	0	0	508	507	0	476	39	34	
4	0	0	0	0	509	509	0	472	38	34	
5	0	0	0	0	509	509	0	468	38	34	
6	0	0	0	0	509	508	0	456	38	32	
7	0	0	0	0	506	510	0	456	38	31	
8	0	0	0	0	508	509	0	474	38	31	
9	0	0	0	0	508	508	0	494	38	32	
10	0	0	0	0	510	508	0	511	38	33	
11	0	0	0	0	508	508	0	518	39	34	
12	0	0	0	0	510	509	0	520	38	34	
13	0	0	0	0	510	508	0	527	38	34	
14	0	0	0	0	510	507	0	524	38	33	
15	0	0	0	0	509	506	0	527	38	31	
0	0	0	0	0	508	506	0	540	39	31	
1	0	0	0	0	509	506	0	519	38	31	
2	0	0	0	0	510	507	0	476	40	32	
3	0	0	0	0	509	507	0	439	32	33	
4	0	0	0	0	508	508	0	415	34	34	
5	0	0	0	0	508	508	0	387	40	34	
6	0	0	0	0	508	507	0	394	39	33	
7	0	0	0	0	507	508	0	420	35	32	
8	0	0	0	0	508	509	0	455	35	31	
9	0	0	0	0	508	510	0	483	39	31	
10	0	0	0	0	510	510	0	490	39	32	
11	0	0	0	0	510	508	0	508	38	33	
12	0	0	0	0	508	506	0	519	38	34	
13	0	0	0	0	510	508	0	518	37	34	
14	0	0	0	0	508	509	0	513	42	34	
15	0	0	0	0	509	508	0	515	40	32	
0	0	0	0	0	510	506	0	536	37	31	
1	0	0	0	0	511	507	0	546	38	31	
2	0	0	0	0	511	508	0	559	41	32	
3	0	0	0	0	511	511	0	560	41	33	
4	0	0	0	0	507	512	0	558	42	34	
5	0	0	0	0	508	511	0	579	40	35	
6	0	0	0	0	508	510	0	583	38	34	
7	0	0	0	0	510	509	0	565	40	33	
8	0	0	0	0	510	510	0	543	43	31	
9	0	0	0	0	510	508	0	521	42	31	
10	0	0	0	0	509	508	0	526	37	32	
11	0	0	0	0	511	508	0	541	39	33	
12	0	0	0	0	512	510	0	558	41	34	
13	0	0	0	0	512	509	0	559	41	35	
14	0	0	0	0	510	507	0	547	39	35	
15	0	0	0	0	510	508	0	547	38	34	
0	0	0	0	0	508	508	0	556	38	32	
1	0	0	0	0	509	506	0	550	40	31	
2	0	0	0	0	509	504	0	536	40	31	
3	0	0	0	0	509	505	0	507	38	33	
4	0	0	0	0	508	504	0	501	37	34	
5	0	0	0	0	508	504	0	505	38	35	
6	0	0	0	0	510	504	0	504	39	35	
7	0	0	0	0	508	504	0	500	37	34	
8	0	0	0	0	508	505	0	491	37	33	
9	0	0	0	0	509	506	0	491	36	31	
10	0	0	0	0	508	507	0	501	38	31	
11	0	0	0	0	508	506	0	519	38	32	
12	0	0	0	0	509	505	0	527	37	34	
13	0	0	0	0	510	505	0	518	37	35	
14	0	0	0	0	508	505	0	521	37	35	
15	0	0	0	0	511	506	0	536	37	35	
0	0	0	0	0	509	507	0	546	38	34	
1	0	0	0	0	508	506	0	539	38	32	
2	0	0	0	0	509	504	0	512	37	31	
3	0	0	0	0	509	503	0	493	38	32	
4	0	0	0	0	510	505	0	487	38	33	
5	0	0	0	0	507	507	0	492	38	35	
6	0	0	0	0	509	507	0	493	37	35	
7	0	0	0	0	511	506	0	474	37	35	
8	0	0	0	0	509	507	0	479	38	34	
9	0	0	0	0	510	508	0	487	38	33	
10	0	0	0	0	510	507	0	482	38	32	
11	0	0	0	0	508	507	0	467	38	32	
12	0	0	0	0	509	506	0	455	37	33	
13	0	0	0	0	507	507	0	455	38	34	
14	0	0	0	0	508	507	0	451	38	35	
15	0	0	0	0	510	508	0	452	38	36	
0	0	0	0	0	509	507	0	443	38	35	
1	0	0	0	0	509	506	0	435	38	33	
2	0	0	0	0	509	506	0	438	38	32	
3	0	0	0	0	511	508	0	445	38	32	
4	0	0	0	0	511	509	0	463	38	33	
5	0	0	0	0	510	508	0	470	38	34	
6	0	0	0	0	508	507	0	464	38	35	
7	0	0	0	0	508	507	0	464	38	36	
8	0	0	0	0	512	507	0	469	38	35	
9	0	0	0	0	512	508	0	476	38	34	
10	0	0	0	0	507	507	0	462	38	33	
11	0	0	0	0	508	507	0	438	38	32	
12	0	0	0	0	509	506	0	415	38	33	
13	0	0	0	0	509	506	0	412	38	34	
14	0	0	0	0	509	506	0	437	38	35	
15	0	0	0	0	509	506	0	440	38	36	
0	0	0	0	0	510	507	0	430	38	36	
1	0	0	0	0	508	508	0	433	38	35	
2	0	0	0	0	510	508	0	438	38	33	
3	0	0	0	0	508	507	0	440	38	32	
4	0	0	0	0	509	508	0	444	38	32	
5	0	0	0	0	510	509	0	435	38	34	
6	0	0	0	0	509	509	0	441	38	35	
7	0	0	0	0	510	509	0	446	38	36	
8	0	0	0	0	509	509	0	448	38	36	
9	0	0	0	0	508	508	0	438	38	35	
10	0	0	0	0	508	506	0	430	38	34	
11	0	0	0	0	509	506	0	441	38	33	
12	0	0	0	0	507	504	0	461	38	32	
13	0	0	0	0	509	504	0	481	38	33	
14	0	0	0	0	507	504	0	487	38	35	
15	0	0	0	0	508	504	0	478	38	36	
0	0	0	0	0	510	502	0	477	38	36	
1	0	0	0	0	511	503	0	481	38	36	
2	0	0	0	0	511	502	0	483	38	35	
3	0	0	0	0	508	504	0	477	38	33	
4	0	0	0	0	510	505	0	465	38	33	
5	0	0	0	0	508	507	0	483	38	33	
6	0	0	0	0	509	507	0	502	38	35	
7	0	0	0	0	509	506	0	509	38	36	
8	0	0	0	0	511	508	0	508	38	36	
9	0	0	0	0	509	510	0	497	38	36	
10	0	0	0	0	508	507	0	498	38	35	
11	0	0	0	0	509	508	0	501	38	34	
12	0	0	0	0	509	508	0	497	38	33	
13	0	0	0	0	507	507	0	476	38	33	
14	0	0	0	0	507	508	0	438	38	34	
15	0	0	0	0	509	508	0	430	38	36	
0	0	0	0	0	509	509	0	451	38	36	
1	0	0	0	0	511	508	0	465	38	37	
2	0	0	0	0	511	508	0	468	38	36	
3	0	0	0	0	511	506	0	467	38	35	
4	0	0	0	0	511	506	0	458	38	33	
5	0	0	0	0	512	507	0	466	38	33	
6	0	0	0	0	510	507	0	483	38	34	
7	0	0	0	0	507	505	0	491	38	35	
8	0	0	0	0	508	504	0	497	38	36	
9	0	0	0	0	508	504	0	513	38	37	
10	0	0	0	0	509	505	0	530	38	37	
11	0	0	0	0	509	507	0	554	39	35	
12	0	0	0	0	507	509	0	555	38	34	
13	0	0	0	0	508	510	0	537	38	33	
14	0	0	0	0	508	507	0	535	38	34	
15	0	0	0	0	509	507	0	551	38	35	
0	0	0	0	0	507	508	0	568	38	36	
1	0	0	0	0	508	506	0	581	38	37	
2	0	0	0	0	508	507	0	588	38	37	
3	0	0	0	0	508	507	0	594	39	36	
4	0	0	0	0	508	508	0	595	38	35	
5	0	0	0	0	508	508	0	585	38	34	
6	0	0	0	0	509	509	0	588	38	34	
7	0	0	0	0	509	508	0	582	38	35	
8	0	0	0	0	511	508	0	567	38	36	
9	0	0	0	0	511	508	0	556	38	37	
10	0	0	0	0	510	509	0	550	38	38	
11	0	0	0	0	510	510	0	560	39	37	
12	0	0	0	0	509	510	0	571	38	35	
13	0	0	0	0	512	510	0	586	38	34	
14	0	0	0	0	508	508	0	594	38	34	
15	0	0	0	0	507	505	0	588	38	35	
0	0	0	0	0	508	507	0	570	38	36	
1	0	0	0	0	510	508	0	539	38	37	
2	0	0	0	0	510	507	0	529	38	38	
3	0	0	0	0	511	509	0	523	38	37	
4	0	0	0	0	509	508	0	508	38	36	
5	0	0	0	0	510	508	0	496	38	35	
6	0	0	0	0	510	509	0	480	38	34	
7	0	0	0	0	510	510	0	487	38	35	
8	0	0	0	0	512	510	0	502	38	36	
9	0	0	0	0	509	509	0	510	38	37	
10	0	0	0	0	508	507	0	494	38	38	
11	0	0	0	0	508	507	0	476	38	38	
12	0	0	0	0	506	506	0	488	38	37	
13	0	0	0	0	511	507	0	516	38	35	
14	0	0	0	0	510	507	0	535	38	34	
15	0	0	0	0	510	507	0	538	38	35	
0	0	0	0	0	509	508	0	534	38	36	
1	0	0	0	0	510	508	0	549	38	37	
2	0	0	0	0	510	508	0	560	38	38	
3	0	0	0	0	506	508	0	588	38	38	
4	0	0	0	0	510	508	0	597	38	38	
5	0	0	0	0	510	506	0	581	38	36	
6	0	0	0	0	508	505	0	570	38	35	
7	0	0	0	0	508	508	0	567	38	35	
8	0	0	0	0	510	508	0	568	38	36	
9	0	0	0	0	510	508	0	565	38	37	
10	0	0	0	0	511	508	0	545	38	38	
11	0	0	0	0	509	506	0	526	39	39	
12	0	0	0	0	508	509	0	512	38	38	
13	0	0	0	0	508	508	0	519	38	37	
14	0	0	0	0	510	508	0	526	38	35	
15	0	0	0	0	508	508	0	523	38	35	
0	0	0	0	0	507	505	0	518	38	36	
1	0	0	0	0	509	507	0	516	38	37	
2	0	0	0	0	507	507	0	506	38	38	
3	0	0	0	0	509	505	0	483	39	39	
4	0	0	0	0	511	507	0	475	38	39	
5	0	0	0	0	508	506	0	485	38	38	
6	0	0	0	0	510	507	0	504	38	36	
7	0	0	0	0	510	506	0	513	38	35	
8	0	0	0	0	509	506	0	519	38	36	
9	0	0	0	0	508	507	0	508	38	37	
10	0	0	0	0	509	506	0	508	38	38	
11	0	0	0	0	510	506	0	495	38	39	
12	0	0	0	0	508	508	0	482	38	39	
13	0	0	0	0	509	509	0	475	38	38	
14	0	0	0	0	507	510	0	461	38	37	
15	0	0	0	0	509	510	0	454	38	36	
0	0	0	0	0	508	510	0	458	38	36	
1	0	0	0	0	511	509	0	487	38	37	
2	0	0	0	0	510	509	0	501	38	38	
3	0	0	0	0	510	511	0	513	39	39	
4	0	0	0	0	509	510	0	528	38	39	
5	0	0	0	0	509	509	0	538	38	39	
6	0	0	0	0	510	511	0	534	38	38	
7	0	0	0	0	509	511	0	524	38	36	
8	0	0	0	0	510	511	0	508	38	36	
9	0	0	0	0	507	510	0	505	38	37	
10	0	0	0	0	511	509	0	500	38	38	
11	0	0	0	0	510	508	0	498	39	39	
12	0	0	0	0	510	507	0	505	38	40	
13	0	0	0	0	510	505	0	494	38	40	
14	0	0	0	0	508	506	0	515	38	39	
15	0	0	0	0	510	507	0	553	38	37	
0	0	0	0	0	508	508	0	580	38	36	
1	0	0	0	0	510	508	0	572	38	36	
2	0	0	0	0	509	505	0	552	38	38	
3	0	0	0	0	511	505	0	555	39	39	
4	0	0	0	0	510	506	0	566	38	40	
5	0	0	0	0	508	507	0	570	38	40	
6	0	0	0	0	508	507	0	561	38	39	
7	0	0	0	0	510	508	0	544	38	38	
8	0	0	0	0	508	508	0	547	38	37	
9	0	0	0	0	509	506	0	551	38	36	
10	0	0	0	0	512	506	0	564	38	37	
11	0	0	0	0	509	507	0	553	39	39	
12	0	0	0	0	510	506	0	539	38	40	
13	0	0	0	0	507	505	0	544	38	40	
14	0	0	0	0	508	504	0	556	38	40	
15	0	0	0	0	508	505	0	557	38	38	
0	0	0	0	0	509	504	0	569	38	37	
1	0	0	0	0	508	504	0	566	38	36	
2	0	0	0	0	508	505	0	571	38	37	
3	0	0	0	0	509	506	0	566	39	38	
4	0	0	0	0	510	507	0	547	38	39	
5	0	0	0	0	507	507	0	524	38	40	
6	0	0	0	0	508	508	0	487	38	40	
7	0	0	0	0	510	509	0	486	38	39	
8	0	0	0	0	509	508	0	503	38	38	
9	0	0	0	0	512	507	0	519	38	37	
10	0	0	0	0	509	508	0	522	38	37	
11	0	0	0	0	509	508	0	504	39	38	
12	0	0	0	0	509	508	0	492	38	39	
13	0	0	0	0	512	509	0	496	38	40	
14	0	0	0	0	510	508	0	493	38	40	
15	0	0	0	0	510	508	0	487	38	40	
0	0	0	0	0	510	508	0	467	38	38	
1	0	0	0	0	507	507	0	454	38	37	
2	0	0	0	0	508	508	0	445	38	37	
3	0	0	0	0	509	508	0	442	39	38	
4	0	0	0	0	507	510	0	448	38	39	
5	0	0	0	0	507	508	0	422	38	40	
6	0	0	0	0	508	508	0	425	38	41	
7	0	0	0	0	509	506	0	443	38	40	
8	0	0	0	0	508	507	0	472	38	39	
9	0	0	0	0	510	508	0	496	38	37	
10	0	0	0	0	508	508	0	499	38	37	
11	0	0	0	0	509	509	0	520	39	38	
12	0	0	0	0	510	508	0	521	38	39	
13	0	0	0	0	511	508	0	533	38	40	
14	0	0	0	0	509	510	0	538	38	41	
15	0	0	0	0	509	510	0	525	38	40	
0	0	0	0	0	508	511	0	520	38	39	
1	0	0	0	0	511	509	0	537	38	38	
2	0	0	0	0	510	509	0	559	38	37	
3	0	0	0	0	511	508	0	569	39	37	
4	0	0	0	0	508	508	0	555	38	38	
5	0	0	0	0	509	508	0	554	38	40	
6	0	0	0	0	510	508	0	567	38	40	
7	0	0	0	0	511	508	0	563	38	41	
8	0	0	0	0	510	508	0	555	38	40	
9	0	0	0	0	510	508	0	528	38	39	
10	0	0	0	0	508	507	0	520	38	37	
11	0	0	0	0	510	505	0	518	38	37	
12	0	0	0	0	509	505	0	516	38	38	
13	0	0	0	0	509	506	0	520	38	39	
14	0	0	0	0	508	504	0	516	38	40	
15	0	0	0	0	508	505	0	519	38	41	
0	0	0	0	0	508	505	0	522	38	40	
1	0	0	0	0	508	506	0	520	38	39	
2	0	0	0	0	510	507	0	534	38	38	
3	0	0	0	0	511	505	0	537	38	37	
4	0	0	0	0	510	506	0	527	38	38	
5	0	0	0	0	510	506	0	506	38	39	
6	0	0	0	0	510	507	0	492	38	40	
7	0	0	0	0	510	507	0	492	38	41	
8	0	0	0	0	507	507	0	483	38	41	
9	0	0	0	0	509	507	0	467	38	40	
10	0	0	0	0	508	506	0	455	38	38	
11	0	0	0	0	509	505	0	456	38	37	
12	0	0	0	0	508	505	0	479	38	38	
13	0	0	0	0	508	507	0	492	38	39	
14	0	0	0	0	507	510	0	516	38	40	
15	0	0	0	0	511	510	0	548	38	41	
0	0	0	0	0	506	510	0	569	38	41	
1	0	0	0	0	509	510	0	588	38	40	
2	0	0	0	0	509	511	0	591	38	39	
3	0	0	0	0	508	509	0	590	38	37	
4	0	0	0	0	508	508	0	573	38	37	
5	0	0	0	0	509	508	0	556	38	38	
6	0	0	0	0	511	508	0	552	38	40	
7	0	0	0	0	509	508	0	539	38	40	
8	0	0	0	0	509	511	0	544	38	41	
9	0	0	0	0	511	511	0	553	38	41	
10	0	0	0	0	510	510	0	548	38	39	
11	0	0	0	0	510	509	0	536	38	38	
12	0	0	0	0	509	507	0	518	38	37	
13	0	0	0	0	509	508	0	513	38	38	
14	0	0	0	0	510	510	0	502	38	39	
15	0	0	0	0	509	510	0	498	38	40	
0	0	0	0	0	510	509	0	488	38	41	
1	0	0	0	0	508	510	0	470	38	41	
2	0	0	0	0	510	510	0	473	38	40	
3	0	0	0	0	510	509	0	484	38	38	
4	0	0	0	0	509	510	0	508	38	37	
5	0	0	0	0	509	508	0	527	38	38	
6	0	0	0	0	510	508	0	526	38	39	
7	0	0	0	0	509	508	0	525	38	40	
8	0	0	0	0	509	508	0	513	38	41	
9	0	0	0	0	510	509	0	492	38	41	
10	0	0	0	0	507	508	0	468	38	40	
11	0	0	0	0	509	508	0	454	38	39	
12	0	0	0	0	510	509	0	471	38	38	
13	0	0	0	0	509	508	0	495	38	37	
14	0	0	0	0	509	507	0	519	38	38	
15	0	0	0	0	508	506	0	518	38	40	
0	0	0	0	0	509	508	0	521	38	41	
1	0	0	0	0	510	507	0	536	38	41	
2	0	0	0	0	511	507	0	555	38	41	
3	0	0	0	0	509	506	0	563	38	39	
4	0	0	0	0	507	507	0	560	38	38	
5	0	0	0	0	508	507	0	543	38	37	
6	0	0	0	0	509	506	0	539	38	38	
7	0	0	0	0	509	507	0	540	38	39	
8	0	0	0	0	509	505	0	537	38	40	
9	0	0	0	0	509	505	0	543	38	41	
10	0	0	0	0	509	506	0	534	38	41	
11	0	0	0	0	510	506	0	529	38	40	
12	0	0	0	0	511	507	0	537	38	38	
13	0	0	0	0	508	507	0	547	38	37	
14	0	0	0	0	511	508	0	564	38	38	
15	0	0	0	0	510	507	0	565	38	39	
0	0	0	0	0	509	506	0	557	38	40	
1	0	0	0	0	510	506	0	544	38	41	
2	0	0	0	0	510	507	0	526	38	41	
3	0	0	0	0	512	508	0	528	38	40	
4	0	0	0	0	512	506	0	520	38	39	
5	0	0	0	0	508	506	0	500	38	37	
6	0	0	0	0	509	507	0	469	38	37	
7	0	0	0	0	510	509	0	451	38	38	
8	0	0	0	0	510	509	0	453	38	40	
9	0	0	0	0	510	510	0	467	38	41	
10	0	0	0	0	509	509	0	492	38	41	
11	0	0	0	0	509	508	0	500	38	41	
12	0	0	0	0	510	509	0	497	38	39	
13	0	0	0	0	508	510	0	498	38	38	
14	0	0	0	0	508	509	0	504	38	37	
15	0	0	0	0	506	510	0	514	38	38	
0	0	0	0	0	510	510	0	527	38	39	
1	0	0	0	0	508	508	0	529	38	40	
2	0	0	0	0	508	509	0	518	38	41	
3	0	0	0	0	509	508	0	494	38	41	
4	0	0	0	0	509	508	0	472	38	40	
5	0	0	0	0	509	509	0	450	38	38	
6	0	0	0	0	509	508	0	450	38	37	
7	0	0	0	0	508	509	0	461	38	38	
8	0	0	0	0	509	510	0	469	38	39	
9	0	0	0	0	510	511	0	488	38	40	
10	0	0	0	0	511	510	0	490	38	41	
11	0	0	0	0	510	510	0	490	38	41	
12	0	0	0	0	510	509	0	485	38	40	
13	0	0	0	0	510	509	0	468	38	39	
14	0	0	0	0	511	508	0	433	38	38	
15	0	0	0	0	509	506	0	398	38	37	
0	0	0	0	0	509	507	0	398	38	38	
1	0	0	0	0	509	508	0	417	38	40	
2	0	0	0	0	509	509	0	449	38	41	
3	0	0	0	0	508	508	0	485	38	41	
4	0	0	0	0	510	509	0	515	38	41	
5	0	0	0	0	510	507	0	539	38	39	
6	0	0	0	0	511	508	0	553	38	38	
7	0	0	0	0	510	508	0	568	38	37	
8	0	0	0	0	509	509	0	574	38	38	
9	0	0	0	0	508	510	0	571	38	39	
10	0	0	0	0	508	511	0	580	38	40	
11	0	0	0	0	508	509	0	568	38	41	
12	0	0	0	0	508	509	0	559	38	41	
13	0	0	0	0	510	508	0	559	38	40	
14	0	0	0	0	510	507	0	543	38	38	
15	0	0	0	0	508	505	0	527	38	37	
0	0	0	0	0	508	506	0	534	38	38	
1	0	0	0	0	510	508	0	540	38	39	
2	0	0	0	0	509	506	0	546	38	40	
3	0	0	0	0	509	507	0	543	39	41	
4	0	0	0	0	510	507	0	541	38	41	
5	0	0	0	0	509	507	0	536	38	40	
6	0	0	0	0	510	508	0	524	38	39	
7	0	0	0	0	508	509	0	532	38	38	
8	0	0	0	0	509	509	0	547	38	37	
9	0	0	0	0	507	507	0	557	38	39	
10	0	0	0	0	508	508	0	558	38	40	
11	0	0	0	0	509	508	0	548	39	41	
12	0	0	0	0	509	507	0	555	38	41	
13	0	0	0	0	509	507	0	553	38	41	
14	0	0	0	0	510	508	0	561	38	39	
15	0	0	0	0	510	507	0	551	38	38	
0	0	0	0	0	509	507	0	545	38	37	
1	0	0	0	0	510	508	0	547	38	38	
2	0	0	0	0	509	508	0	545	38	39	
3	0	0	0	0	510	508	0	536	38	40	
4	0	0	0	0	511	508	0	520	38	41	
5	0	0	0	0	508	509	0	499	38	41	
6	0	0	0	0	508	508	0	489	38	40	
7	0	0	0	0	509	507	0	472	38	38	
8	0	0	0	0	506	508	0	456	38	37	
9	0	0	0	0	507	509	0	443	38	38	
10	0	0	0	0	507	508	0	432	38	39	
11	0	0	0	0	506	508	0	440	38	40	
12	0	0	0	0	510	508	0	457	38	41	
13	0	0	0	0	511	508	0	467	38	41	
14	0	0	0	0	509	507	0	468	38	40	
15	0	0	0	0	510	507	0	452	38	39	
0	0	0	0	0	509	509	0	449	38	38	
1	0	0	0	0	510	510	0	463	38	37	
2	0	0	0	0	508	510	0	492	38	39	
3	0	0	0	0	508	507	0	508	38	40	
4	0	0	0	0	508	508	0	502	38	41	
5	0	0	0	0	507	508	0	497	38	41	
6	0	0	0	0	511	507	0	493	38	41	
7	0	0	0	0	509	507	0	478	38	39	
8	0	0	0	0	510	508	0	483	38	38	
9	0	0	0	0	510	508	0	496	38	37	
10	0	0	0	0	510	508	0	492	38	38	
11	0	0	0	0	511	509	0	491	39	39	
12	0	0	0	0	508	510	0	503	38	40	
13	0	0	0	0	509	510	0	515	38	41	
14	0	0	0	0	508	510	0	483	38	41	
15	0	0	0	0	511	510	0	478	38	40	
0	0	0	0	0	512	508	0	491	38	38	
1	0	0	0	0	510	508	0	526	38	37	
2	0	0	0	0	510	509	0	561	38	38	
3	0	0	0	0	507	510	0	578	39	39	
4	0	0	0	0	508	510	0	579	38	40	
5	0	0	0	0	509	509	0	580	38	41	
6	0	0	0	0	509	508	0	577	38	41	
7	0	0	0	0	511	507	0	577	38	40	
8	0	0	0	0	511	508	0	562	39	39	
9	0	0	0	0	508	507	0	558	38	38	
10	0	0	0	0	509	508	0	554	38	38	
11	0	0	0	0	510	508	0	545	39	39	
12	0	0	0	0	510	508	0	527	38	40	
13	0	0	0	0	510	510	0	498	38	41	
14	0	0	0	0	510	509	0	493	38	41	
15	0	0	0	0	508	507	0	496	38	41	
0	0	0	0	0	508	508	0	492	39	39	
1	0	0	0	0	509	508	0	496	38	38	
2	0	0	0	0	508	509	0	492	38	37	
3	0	0	0	0	507	508	0	496	39	38	
4	0	0	0	0	508	507	0	500	38	39	
5	0	0	0	0	508	507	0	499	38	40	
6	0	0	0	0	511	509	0	486	38	41	
7	0	0	0	0	510	509	0	476	38	41	
8	0	0	0	0	512	509	0	464	38	40	
9	0	0	0	0	509	509	0	482	38	38	
10	0	0	0	0	509	509	0	483	38	37	
11	0	0	0	0	510	509	0	480	39	38	
12	0	0	0	0	508	508	0	468	38	39	
13	0	0	0	0	508	508	0	471	38	40	
14	0	0	0	0	510	508	0	490	38	41	
15	0	0	0	0	508	508	0	513	38	41	
0	0	0	0	0	508	507	0	528	38	40	
1	0	0	0	0	508	507	0	527	38	39	
2	0	0	0	0	511	507	0	541	38	38	
3	0	0	0	0	511	506	0	558	38	38	
4	0	0	0	0	510	507	0	563	38	39	
5	0	0	0	0	508	508	0	564	38	40	
6	0	0	0	0	508	507	0	547	38	41	
7	0	0	0	0	509	507	0	540	38	41	
8	0	0	0	0	510	507	0	534	38	41	
9	0	0	0	0	507	508	0	530	38	39	
10	0	0	0	0	508	507	0	524	38	38	
11	0	0	0	0	508	508	0	502	38	38	
12	0	0	0	0	508	507	0	490	38	38	
13	0	0	0	0	510	505	0	485	38	40	
14	0	0	0	0	509	507	0	487	38	41	
15	0	0	0	0	508	507	0	492	38	41	
0	0	0	0	0	510	506	0	485	38	41	
1	0	0	0	0	511	507	0	484	38	40	
2	0	0	0	0	509	507	0	482	38	38	
3	0	0	0	0	509	508	0	480	38	38	
4	0	0	0	0	508	508	0	488	38	38	
5	0	0	0	0	509	507	0	484	38	39	
6	0	0	0	0	510	508	0	467	38	40	
7	0	0	0	0	507	508	0	456	38	41	
8	0	0	0	0	508	509	0	455	38	41	
9	0	0	0	0	510	509	0	467	38	41	
10	0	0	0	0	509	509	0	490	38	39	
11	0	0	0	0	510	509	0	508	38	38	
12	0	0	0	0	511	509	0	517	38	38	
13	0	0	0	0	510	508	0	520	38	39	
14	0	0	0	0	508	508	0	507	38	40	
15	0	0	0	0	510	508	0	483	38	41	
0	0	0	0	0	507	508	0	460	38	41	
1	0	0	0	0	509	508	0	434	38	41	
2	0	0	0	0	510	507	0	433	38	40	
3	0	0	0	0	509	508	0	428	38	38	
4	0	0	0	0	507	508	0	424	38	38	
5	0	0	0	0	510	507	0	426	38	38	
6	0	0	0	0	510	508	0	444	38	40	
7	0	0	0	0	506	509	0	463	38	41	
8	0	0	0	0	510	512	0	480	38	41	
9	0	0	0	0	509	512	0	484	38	41	
10	0	0	0	0	510	511	0	499	38	40	
11	0	0	0	0	512	510	0	528	38	39	
12	0	0	0	0	508	511	0	563	38	38	
13	0	0	0	0	506	510	0	578	38	38	
14	0	0	0	0	509	508	0	581	38	39	
15	0	0	0	0	511	508	0	598	38	40	
0	0	0	0	0	511	506	0	625	38	41	
1	0	0	0	0	509	506	0	642	38	41	
2	0	0	0	0	507	507	0	646	38	41	
3	0	0	0	0	511	507	0	627	38	39	
4	0	0	0	0	510	507	0	609	38	38	
5	0	0	0	0	508	506	0	595	38	38	
6	0	0	0	0	508	508	0	583	38	39	
7	0	0	0	0	507	507	0	568	38	40	
8	0	0	0	0	510	508	0	541	38	41	
9	0	0	0	0	509	508	0	528	38	42	
10	0	0	0	0	509	509	0	529	38	41	
11	0	0	0	0	508	510	0	529	38	40	
12	0	0	0	0	508	511	0	536	38	38	
13	0	0	0	0	507	510	0	527	38	38	
14	0	0	0	0	508	510	0	520	38	38	
15	0	0	0	0	508	511	0	530	38	40	
0	0	0	0	0	510	510	0	523	38	41	
1	0	0	0	0	507	509	0	509	38	41	
2	0	0	0	0	509	508	0	485	38	41	
3	0	0	0	0	508	508	0	469	38	40	
4	0	0	0	0	509	506	0	460	38	39	
5	0	0	0	0	510	507	0	462	38	38	
6	0	0	0	0	510	508	0	465	38	38	
7	0	0	0	0	511	507	0	462	38	39	
8	0	0	0	0	510	507	0	473	38	40	
9	0	0	0	0	511	507	0	477	38	41	
10	0	0	0	0	510	507	0	470	38	41	
11	0	0	0	0	509	506	0	473	38	41	
12	0	0	0	0	509	508	0	470	38	39	
13	0	0	0	0	509	509	0	472	38	38	
14	0	0	0	0	510	510	0	487	38	38	
15	0	0	0	0	509	509	0	494	38	39	
0	0	0	0	0	508	509	0	509	38	40	
1	0	0	0	0	508	510	0	508	38	41	
2	0	0	0	0	508	509	0	515	38	41	
3	0	0	0	0	510	508	0	520	38	41	
4	0	0	0	0	508	507	0	528	38	40	
5	0	0	0	0	511	507	0	522	38	38	
6	0	0	0	0	507	505	0	507	38	38	
7	0	0	0	0	510	506	0	500	38	38	
8	0	0	0	0	510	508	0	510	38	40	
9	0	0	0	0	509	509	0	508	38	41	
10	0	0	0	0	507	506	0	492	38	41	
11	0	0	0	0	508	508	0	483	38	41	
12	0	0	0	0	508	508	0	507	38	40	
13	0	0	0	0	508	509	0	533	38	39	
14	0	0	0	0	510	509	0	545	38	38	
15	0	0	0	0	508	508	0	546	38	38	
0	0	0	0	0	511	508	0	525	38	39	
1	0	0	0	0	510	508	0	510	38	40	
2	0	0	0	0	509	507	0	509	38	41	
3	0	0	0	0	509	505	0	522	38	41	
4	0	0	0	0	512	505	0	525	38	41	
5	0	0	0	0	512	506	0	505	38	39	
6	0	0	0	0	510	506	0	497	38	38	
7	0	0	0	0	512	505	0	500	38	38	
8	0	0	0	0	511	506	0	519	38	39	
9	0	0	0	0	511	506	0	532	38	40	
10	0	0	0	0	510	505	0	527	38	41	
11	0	0	0	0	508	504	0	520	39	41	
12	0	0	0	0	509	504	0	512	38	41	
13	0	0	0	0	509	505	0	504	38	40	
14	0	0	0	0	507	506	0	500	38	38	
15	0	0	0	0	509	506	0	503	38	38	
0	0	0	0	0	509	507	0	524	38	38	
1	0	0	0	0	508	507	0	552	38	40	
2	0	0	0	0	508	508	0	559	38	41	
3	0	0	0	0	512	508	0	543	39	41	
4	0	0	0	0	510	508	0	495	38	41	
5	0	0	0	0	509	509	0	487	38	40	
6	0	0	0	0	508	509	0	488	38	38	
7	0	0	0	0	507	507	0	497	38	38	
8	0	0	0	0	506	507	0	500	38	38	
9	0	0	0	0	508	507	0	512	38	39	
10	0	0	0	0	507	508	0	540	38	40	
11	0	0	0	0	508	507	0	556	39	41	
12	0	0	0	0	509	507	0	549	38	41	
13	0	0	0	0	510	508	0	534	38	41	
14	0	0	0	0	510	508	0	523	38	39	
15	0	0	0	0	510	507	0	527	38	38	
0	0	0	0	0	511	505	0	532	38	38	
1	0	0	0	0	510	506	0	525	38	39	
2	0	0	0	0	509	505	0	517	38	40	
3	0	0	0	0	510	504	0	512	38	41	
4	0	0	0	0	511	504	0	520	38	42	
5	0	0	0	0	510	504	0	528	38	41	
6	0	0	0	0	508	505	0	521	38	40	
7	0	0	0	0	510	505	0	509	38	38	
8	0	0	0	0	510	508	0	492	38	38	
9	0	0	0	0	510	508	0	509	38	38	
10	0	0	0	0	509	508	0	534	38	40	
11	0	0	0	0	511	508	0	551	38	41	
12	0	0	0	0	510	507	0	539	38	41	
13	0	0	0	0	509	508	0	493	38	41	
14	0	0	0	0	510	507	0	458	38	40	
15	0	0	0	0	510	508	0	445	38	39	
0	0	0	0	0	508	508	0	447	38	38	
1	0	0	0	0	508	508	0	457	38	38	
2	0	0	0	0	508	507	0	464	38	39	
3	0	0	0	0	508	507	0	472	38	40	
4	0	0	0	0	510	507	0	489	38	41	
5	0	0	0	0	509	508	0	498	38	42	
6	0	0	0	0	510	508	0	499	38	41	
7	0	0	0	0	512	509	0	480	38	39	
8	0	0	0	0	510	509	0	478	38	38	
9	0	0	0	0	509	510	0	481	38	38	
10	0	0	0	0	508	510	0	494	38	39	
11	0	0	0	0	509	509	0	499	38	40	
12	0	0	0	0	510	508	0	489	38	41	
13	0	0	0	0	510	510	0	490	38	42	
14	0	0	0	0	509	507	0	496	38	41	
15	0	0	0	0	509	506	0	507	38	40	
0	0	0	0	0	508	507	0	516	38	38	
1	0	0	0	0	508	507	0	497	38	38	
2	0	0	0	0	510	505	0	494	38	39	
3	0	0	0	0	509	506	0	508	38	40	
4	0	0	0	0	509	506	0	511	38	41	
5	0	0	0	0	508	506	0	515	38	41	
6	0	0	0	0	509	508	0	519	38	41	
7	0	0	0	0	509	510	0	535	38	40	
8	0	0	0	0	508	508	0	551	38	39	
9	0	0	0	0	507	508	0	552	38	38	
10	0	0	0	0	508	508	0	554	38	38	
11	0	0	0	0	508	508	0	552	38	39	
12	0	0	0	0	508	510	0	563	38	41	
13	0	0	0	0	509	510	0	572	38	41	
14	0	0	0	0	510	508	0	560	38	42	
15	0	0	0	0	508	508	0	540	38	41	
0	0	0	0	0	509	508	0	506	38	39	
1	0	0	0	0	508	508	0	482	38	38	
2	0	0	0	0	510	507	0	477	38	38	
3	0	0	0	0	510	507	0	475	38	39	
4	0	0	0	0	508	508	0	479	38	40	
5	0	0	0	0	508	508	0	474	38	41	
6	0	0	0	0	511	508	0	489	38	42	
7	0	0	0	0	510	508	0	525	38	41	
8	0	0	0	0	510	509	0	555	38	40	
9	0	0	0	0	509	510	0	551	38	38	
10	0	0	0	0	510	510	0	522	38	38	
11	0	0	0	0	510	509	0	509	39	39	
12	0	0	0	0	509	510	0	511	38	40	
13	0	0	0	0	508	510	0	516	38	41	
14	0	0	0	0	509	509	0	523	38	41	
15	0	0	0	0	511	507	0	498	38	41	
0	0	0	0	0	509	508	0	497	38	40	
1	0	0	0	0	510	507	0	495	38	39	
2	0	0	0	0	509	508	0	492	38	38	
3	0	0	0	0	508	506	0	491	38	38	
4	0	0	0	0	508	505	0	488	38	39	
5	0	0	0	0	511	505	0	499	38	40	
6	0	0	0	0	510	505	0	498	38	41	
7	0	0	0	0	512	505	0	497	38	42	
8	0	0	0	0	511	503	0	487	38	41	
9	0	0	0	0	510	505	0	473	38	39	
10	0	0	0	0	509	504	0	481	38	38	
11	0	0	0	0	508	505	0	494	38	38	
12	0	0	0	0	510	507	0	499	38	39	
13	0	0	0	0	508	507	0	504	38	40	
14	0	0	0	0	510	507	0	513	38	41	
15	0	0	0	0	508	508	0	540	38	42	
0	0	0	0	0	509	508	0	563	38	41	
1	0	0	0	0	507	506	0	572	38	40	
2	0	0	0	0	509	506	0	581	38	38	
3	0	0	0	0	508	508	0	575	38	38	
4	0	0	0	0	508	507	0	563	38	39	
5	0	0	0	0	507	507	0	536	38	40	
6	0	0	0	0	509	506	0	515	38	41	
7	0	0	0	0	510	507	0	513	38	41	
8	0	0	0	0	510	508	0	518	38	41	
9	0	0	0	0	509	508	0	512	38	40	
10	0	0	0	0	511	508	0	512	38	38	
11	0	0	0	0	507	505	0	510	38	38	
12	0	0	0	0	510	505	0	497	38	38	
13	0	0	0	0	511	507	0	470	38	39	
14	0	0	0	0	511	509	0	473	38	40	
15	0	0	0	0	509	509	0	463	38	41	
0	0	0	0	0	507	508	0	462	38	41	
1	0	0	0	0	508	508	0	457	38	40	
2	0	0	0	0	512	508	0	432	38	39	
3	0	0	0	0	508	508	0	433	38	38	
4	0	0	0	0	507	511	0	427	38	38	
5	0	0	0	0	508	510	0	411	38	39	
6	0	0	0	0	508	511	0	408	38	40	
7	0	0	0	0	508	511	0	419	38	41	
8	0	0	0	0	507	510	0	458	38	41	
9	0	0	0	0	511	510	0	491	38	41	
10	0	0	0	0	508	508	0	500	38	39	
11	0	0	0	0	508	508	0	499	38	38	
12	0	0	0	0	511	508	0	490	38	38	
13	0	0	0	0	510	505	0	487	38	38	
14	0	0	0	0	511	505	0	494	38	40	
15	0	0	0	0	511	505	0	493	38	41	
0	0	0	0	0	509	507	0	487	38	41	
1	0	0	0	0	511	508	0	466	38	41	
2	0	0	0	0	508	507	0	460	38	40	
3	0	0	0	0	509	507	0	455	38	38	
4	0	0	0	0	508	506	0	457	38	38	
5	0	0	0	0	508	504	0	463	38	38	
6	0	0	0	0	511	504	0	463	38	39	
7	0	0	0	0	508	505	0	470	38	40	
8	0	0	0	0	509	505	0	475	38	41	
9	0	0	0	0	508	505	0	475	38	41	
10	0	0	0	0	509	506	0	470	38	40	
11	0	0	0	0	509	507	0	442	38	39	
12	0	0	0	0	510	509	0	427	38	38	
13	0	0	0	0	510	508	0	423	38	38	
14	0	0	0	0	509	507	0	422	38	39	
15	0	0	0	0	508	506	0	429	38	40	
0	0	0	0	0	508	507	0	419	38	41	
1	0	0	0	0	507	507	0	429	38	41	
2	0	0	0	0	509	506	0	447	38	41	
3	0	0	0	0	508	507	0	464	38	39	
4	0	0	0	0	509	508	0	476	38	38	
5	0	0	0	0	511	509	0	462	38	38	
6	0	0	0	0	511	508	0	461	38	38	
7	0	0	0	0	508	508	0	473	38	40	
8	0	0	0	0	508	507	0	474	38	41	
9	0	0	0	0	508	507	0	483	38	41	
10	0	0	0	0	508	509	0	494	38	41	
11	0	0	0	0	508	509	0	519	38	40	
12	0	0	0	0	508	510	0	531	38	38	
13	0	0	0	0	509	509	0	515	38	37	
14	0	0	0	0	510	508	0	491	38	38	
15	0	0	0	0	508	509	0	467	38	39	
0	0	0	0	0	508	508	0	452	38	40	
1	0	0	0	0	511	507	0	454	38	41	
2	0	0	0	0	511	506	0	476	38	41	
3	0	0	0	0	510	506	0	497	39	40	
4	0	0	0	0	509	505	0	499	38	39	
5	0	0	0	0	508	505	0	489	38	38	
6	0	0	0	0	511	505	0	477	38	38	
7	0	0	0	0	509	507	0	470	38	39	
8	0	0	0	0	507	507	0	460	38	40	
9	0	0	0	0	508	508	0	437	38	41	
10	0	0	0	0	509	510	0	441	38	41	
11	0	0	0	0	511	509	0	459	38	41	
12	0	0	0	0	511	509	0	480	38	39	
13	0	0	0	0	510	509	0	496	38	38	
14	0	0	0	0	511	508	0	484	38	37	
15	0	0	0	0	508	510	0	485	38	38	
0	0	0	0	0	510	510	0	492	38	40	
1	0	0	0	0	511	511	0	494	38	41	
2	0	0	0	0	509	510	0	494	38	41	
3	0	0	0	0	510	509	0	478	39	41	
4	0	0	0	0	508	509	0	480	38	40	
5	0	0	0	0	509	508	0	484	38	38	
6	0	0	0	0	508	508	0	486	38	37	
7	0	0	0	0	508	507	0	494	38	38	
8	0	0	0	0	510	508	0	490	38	39	
9	0	0	0	0	510	508	0	497	38	40	
10	0	0	0	0	510	508	0	518	38	41	
11	0	0	0	0	509	507	0	540	39	41	
12	0	0	0	0	509	508	0	543	38	40	
13	0	0	0	0	508	508	0	535	38	39	
14	0	0	0	0	512	508	0	537	38	38	
15	0	0	0	0	509	509	0	536	38	38	
0	0	0	0	0	508	510	0	537	38	39	
1	0	0	0	0	508	511	0	525	38	40	
2	0	0	0	0	508	510	0	497	38	41	
3	0	0	0	0	508	508	0	487	38	41	
4	0	0	0	0	508	509	0	484	38	41	
5	0	0	0	0	508	510	0	490	38	39	
6	0	0	0	0	508	510	0	504	38	38	
7	0	0	0	0	506	509	0	511	38	37	
8	0	0	0	0	509	510	0	496	38	38	
9	0	0	0	0	511	509	0	482	38	40	
10	0	0	0	0	510	508	0	488	38	41	
11	0	0	0	0	508	509	0	507	38	41	
12	0	0	0	0	510	508	0	529	38	41	
13	0	0	0	0	509	508	0	529	38	40	
14	0	0	0	0	510	508	0	531	38	38	
15	0	0	0	0	511	507	0	533	38	37	
0	0	0	0	0	511	506	0	533	38	38	
1	0	0	0	0	509	505	0	536	38	39	
2	0	0	0	0	510	505	0	546	38	40	
3	0	0	0	0	508	505	0	569	38	41	
4	0	0	0	0	507	508	0	580	38	41	
5	0	0	0	0	509	507	0	579	38	40	
6	0	0	0	0	509	505	0	556	38	39	
7	0	0	0	0	509	504	0	533	38	37	
8	0	0	0	0	508	505	0	521	38	38	
9	0	0	0	0	508	507	0	497	38	39	
10	0	0	0	0	507	507	0	479	38	40	
11	0	0	0	0	510	507	0	464	38	41	
12	0	0	0	0	508	507	0	459	38	41	
13	0	0	0	0	508	505	0	460	38	41	
14	0	0	0	0	509	506	0	444	38	39	
15	0	0	0	0	509	505	0	435	38	38	
0	0	0	0	0	508	505	0	425	38	37	
1	0	0	0	0	508	505	0	437	38	38	
2	0	0	0	0	508	505	0	463	38	39	
3	0	0	0	0	508	507	0	475	38	40	
4	0	0	0	0	510	507	0	487	38	41	
5	0	0	0	0	510	506	0	492	38	41	
6	0	0	0	0	509	505	0	501	38	40	
7	0	0	0	0	510	506	0	516	38	38	
8	0	0	0	0	510	508	0	540	38	37	
9	0	0	0	0	510	508	0	557	38	38	
10	0	0	0	0	510	507	0	550	38	39	
11	0	0	0	0	508	507	0	543	38	40	
12	0	0	0	0	510	506	0	554	38	41	
13	0	0	0	0	508	506	0	568	38	41	
14	0	0	0	0	508	507	0	580	38	40	
15	0	0	0	0	508	506	0	571	38	39	
0	0	0	0	0	509	507	0	567	38	37	
1	0	0	0	0	508	508	0	562	38	37	
2	0	0	0	0	510	509	0	555	38	39	
3	0	0	0	0	509	508	0	556	38	40	
4	0	0	0	0	511	508	0	556	38	41	
5	0	0	0	0	510	507	0	581	38	41	
6	0	0	0	0	509	507	0	602	38	41	
7	0	0	0	0	510	507	0	600	38	39	
8	0	0	0	0	508	507	0	593	38	38	
9	0	0	0	0	507	508	0	565	38	37	
10	0	0	0	0	510	508	0	545	38	38	
11	0	0	0	0	508	507	0	546	39	39	
12	0	0	0	0	509	506	0	555	38	40	
13	0	0	0	0	507	507	0	549	39	41	
14	0	0	0	0	507	508	0	532	38	41	
15	0	0	0	0	510	508	0	524	38	40	
0	0	0	0	0	511	509	0	523	38	38	
1	0	0	0	0	509	508	0	534	38	37	
2	0	0	0	0	508	507	0	544	38	38	
3	0	0	0	0	511	507	0	534	38	39	
4	0	0	0	0	510	505	0	539	38	40	
5	0	0	0	0	510	506	0	559	38	41	
6	0	0	0	0	508	506	0	557	38	41	
7	0	0	0	0	511	505	0	541	38	40	
8	0	0	0	0	508	505	0	527	38	39	
9	0	0	0	0	508	506	0	525	38	37	
10	0	0	0	0	509	507	0	511	38	37	
11	0	0	0	0	506	506	0	487	38	39	
12	0	0	0	0	507	507	0	456	38	40	
13	0	0	0	0	508	508	0	437	38	41	
14	0	0	0	0	511	510	0	442	38	41	
15	0	0	0	0	509	508	0	455	38	40	
0	0	0	0	0	510	509	0	480	38	39	
1	0	0	0	0	510	510	0	491	38	38	
2	0	0	0	0	510	508	0	481	38	37	
3	0	0	0	0	508	508	0	489	39	38	
4	0	0	0	0	510	509	0	499	38	39	
5	0	0	0	0	510	509	0	516	38	40	
6	0	0	0	0	508	507	0	527	38	41	
7	0	0	0	0	511	508	0	519	38	41	
8	0	0	0	0	510	508	0	513	38	40	
9	0	0	0	0	510	508	0	504	38	38	
10	0	0	0	0	508	508	0	507	38	37	
11	0	0	0	0	509	508	0	518	38	38	
12	0	0	0	0	509	508	0	527	38	39	
13	0	0	0	0	509	511	0	537	38	40	
14	0	0	0	0	510	510	0	541	38	41	
15	0	0	0	0	510	509	0	536	38	41	
0	0	0	0	0	509	509	0	534	38	40	
1	0	0	0	0	511	508	0	522	38	38	
2	0	0	0	0	509	508	0	526	38	37	
3	0	0	0	0	510	509	0	539	38	37	
4	0	0	0	0	510	509	0	538	38	39	
5	0	0	0	0	508	509	0	531	38	40	
6	0	0	0	0	510	508	0	508	38	41	
7	0	0	0	0	509	507	0	504	38	41	
8	0	0	0	0	510	507	0	508	38	40	
9	0	0	0	0	509	506	0	529	38	39	
10	0	0	0	0	508	506	0	543	38	38	
11	0	0	0	0	509	509	0	528	38	37	
12	0	0	0	0	507	509	0	522	38	38	
13	0	0	0	0	509	509	0	530	38	39	
14	0	0	0	0	510	508	0	527	38	40	
15	0	0	0	0	511	510	0	524	38	41	
0	0	0	0	0	510	510	0	516	38	41	
1	0	0	0	0	508	510	0	522	38	39	
2	0	0	0	0	510	512	0	531	38	38	
3	0	0	0	0	508	512	0	535	38	37	
4	0	0	0	0	508	510	0	515	38	38	
5	0	0	0	0	508	509	0	493	38	39	
6	0	0	0	0	505	508	0	494	38	40	
7	0	0	0	0	508	508	0	514	38	41	
8	0	0	0	0	508	506	0	522	38	41	
9	0	0	0	0	509	508	0	517	38	40	
10	0	0	0	0	509	508	0	515	38	38	
11	0	0	0	0	509	507	0	532	38	37	
12	0	0	0	0	510	508	0	546	38	37	
13	0	0	0	0	510	510	0	546	38	38	
14	0	0	0	0	511	510	0	522	38	40	
15	0	0	0	0	508	511	0	476	38	40	
0	0	0	0	0	511	509	0	452	38	41	
1	0	0	0	0	510	508	0	447	38	40	
2	0	0	0	0	511	508	0	444	38	39	
3	0	0	0	0	508	506	0	427	38	37	
4	0	0	0	0	508	507	0	396	38	37	
5	0	0	0	0	508	506	0	399	38	38	
6	0	0	0	0	508	506	0	415	38	39	
7	0	0	0	0	509	505	0	427	38	40	
8	0	0	0	0	507	506	0	430	38	41	
9	0	0	0	0	507	508	0	427	38	40	
10	0	0	0	0	507	510	0	436	38	39	
11	0	0	0	0	509	511	0	456	38	38	
12	0	0	0	0	509	509	0	485	38	37	
13	0	0	0	0	511	511	0	507	38	38	
14	0	0	0	0	511	511	0	534	38	39	
15	0	0	0	0	510	511	0	550	38	40	
0	0	0	0	0	511	511	0	570	38	41	
1	0	0	0	0	508	509	0	578	38	41	
2	0	0	0	0	510	509	0	577	38	40	
3	0	0	0	0	509	510	0	582	38	38	
4	0	0	0	0	510	511	0	584	38	37	
5	0	0	0	0	511	509	0	595	38	37	
6	0	0	0	0	508	507	0	594	38	38	
7	0	0	0	0	510	507	0	595	38	40	
8	0	0	0	0	511	507	0	585	38	40	
9	0	0	0	0	511	508	0	568	38	41	
10	0	0	0	0	511	507	0	568	38	40	
11	0	0	0	0	509	508	0	559	39	39	
12	0	0	0	0	508	508	0	544	38	37	
13	0	0	0	0	508	509	0	517	38	37	
14	0	0	0	0	508	509	0	498	38	38	
15	0	0	0	0	509	508	0	492	38	39	
0	0	0	0	0	509	510	0	496	39	40	
1	0	0	0	0	509	510	0	484	39	41	
2	0	0	0	0	510	509	0	473	38	40	
3	0	0	0	0	511	510	0	480	39	39	
4	0	0	0	0	509	511	0	507	38	38	
5	0	0	0	0	509	512	0	523	39	37	
6	0	0	0	0	508	510	0	538	39	38	
7	0	0	0	0	507	508	0	551	38	39	
8	0	0	0	0	510	508	0	567	38	40	
9	0	0	0	0	510	509	0	580	39	41	
10	0	0	0	0	509	510	0	578	39	41	
11	0	0	0	0	508	510	0	562	39	40	
12	0	0	0	0	507	510	0	534	39	38	
13	0	0	0	0	508	507	0	525	39	37	
14	0	0	0	0	508	505	0	526	38	37	
15	0	0	0	0	510	505	0	534	38	38	
0	0	0	0	0	510	506	0	540	39	39	
1	0	0	0	0	508	505	0	523	38	40	
2	0	0	0	0	510	504	0	512	38	41	
3	0	0	0	0	510	506	0	512	39	40	
4	0	0	0	0	512	505	0	526	38	39	
5	0	0	0	0	510	505	0	534	38	37	
6	0	0	0	0	511	506	0	515	39	37	
7	0	0	0	0	509	506	0	506	38	38	
8	0	0	0	0	509	506	0	500	38	39	
9	0	0	0	0	508	506	0	487	38	40	
10	0	0	0	0	508	505	0	470	38	41	
11	0	0	0	0	509	506	0	442	38	40	
12	0	0	0	0	508	507	0	432	38	39	
13	0	0	0	0	510	505	0	436	38	38	
14	0	0	0	0	509	507	0	442	38	37	
15	0	0	0	0	509	507	0	450	38	37	
0	0	0	0	0	508	507	0	443	38	39	
1	0	0	0	0	507	507	0	448	38	40	
2	0	0	0	0	512	505	0	462	38	40	
3	0	0	0	0	510	506	0	487	38	41	
4	0	0	0	0	509	506	0	511	38	40	
5	0	0	0	0	509	506	0	519	38	38	
6	0	0	0	0	510	508	0	535	38	37	
7	0	0	0	0	511	508	0	544	38	37	
8	0	0	0	0	507	508	0	529	38	38	
9	0	0	0	0	508	508	0	509	38	39	
10	0	0	0	0	507	508	0	500	38	40	
11	0	0	0	0	509	506	0	515	38	41	
12	0	0	0	0	509	506	0	545	38	40	
13	0	0	0	0	508	507	0	567	38	39	
14	0	0	0	0	509	507	0	566	38	37	
15	0	0	0	0	510	507	0	544	38	37	
0	0	0	0	0	511	506	0	510	38	38	
1	0	0	0	0	510	506	0	482	38	39	
2	0	0	0	0	509	507	0	467	38	40	
3	0	0	0	0	509	507	0	461	38	41	
4	0	0	0	0	509	508	0	455	38	40	
5	0	0	0	0	508	510	0	477	38	39	
6	0	0	0	0	508	510	0	502	38	38	
7	0	0	0	0	508	510	0	525	38	37	
8	0	0	0	0	510	511	0	539	38	37	
9	0	0	0	0	510	510	0	535	38	39	
10	0	0	0	0	510	509	0	548	38	40	
11	0	0	0	0	510	508	0	558	38	40	
12	0	0	0	0	510	508	0	549	38	40	
13	0	0	0	0	508	508	0	545	38	40	
14	0	0	0	0	510	509	0	527	38	38	
15	0	0	0	0	507	509	0	519	38	37	
0	0	0	0	0	508	509	0	513	38	37	
1	0	0	0	0	508	510	0	515	38	38	
2	0	0	0	0	509	510	0	520	38	39	
3	0	0	0	0	510	511	0	507	38	40	
4	0	0	0	0	511	508	0	514	38	41	
5	0	0	0	0	510	509	0	520	38	40	
6	0	0	0	0	509	511	0	539	38	39	
7	0	0	0	0	510	510	0	555	38	37	
8	0	0	0	0	509	511	0	547	38	37	
9	0	0	0	0	510	511	0	531	38	38	
10	0	0	0	0	509	510	0	517	38	39	
11	0	0	0	0	511	510	0	493	38	40	
12	0	0	0	0	510	510	0	483	38	41	
13	0	0	0	0	508	510	0	458	38	40	
14	0	0	0	0	508	509	0	459	38	39	
15	0	0	0	0	510	510	0	476	38	38	
0	0	0	0	0	509	508	0	492	38	37	
1	0	0	0	0	508	509	0	494	38	37	
2	0	0	0	0	508	511	0	467	38	39	
3	0	0	0	0	509	511	0	462	38	40	
4	0	0	0	0	510	508	0	464	38	40	
5	0	0	0	0	508	508	0	468	38	40	
6	0	0	0	0	509	507	0	476	38	39	
7	0	0	0	0	508	509	0	466	38	38	
8	0	0	0	0	510	507	0	483	38	37	
9	0	0	0	0	508	506	0	497	38	37	
10	0	0	0	0	508	507	0	510	38	38	
11	0	0	0	0	509	507	0	523	39	39	
12	0	0	0	0	509	508	0	522	38	40	
13	0	0	0	0	507	508	0	523	38	41	
14	0	0	0	0	510	508	0	523	38	40	
15	0	0	0	0	508	510	0	535	38	38	
0	0	0	0	0	508	509	0	542	38	37	
1	0	0	0	0	510	508	0	530	38	37	
2	0	0	0	0	509	509	0	523	38	38	
3	0	0	0	0	509	510	0	520	38	39	
4	0	0	0	0	511	508	0	523	38	40	
5	0	0	0	0	509	507	0	514	38	40	
6	0	0	0	0	508	507	0	493	38	40	
7	0	0	0	0	510	508	0	483	38	39	
8	0	0	0	0	509	507	0	488	38	37	
9	0	0	0	0	509	506	0	510	38	37	
10	0	0	0	0	511	506	0	524	38	37	
11	0	0	0	0	510	508	0	516	38	39	
12	0	0	0	0	510	509	0	507	38	40	
13	0	0	0	0	511	509	0	505	38	40	
14	0	0	0	0	511	510	0	516	38	40	
15	0	0	0	0	510	509	0	524	38	39	
0	0	0	0	0	509	509	0	529	38	38	
1	0	0	0	0	509	508	0	529	38	37	
2	0	0	0	0	510	510	0	528	38	37	
3	0	0	0	0	510	510	0	533	38	38	
4	0	0	0	0	509	510	0	529	38	39	
5	0	0	0	0	508	507	0	517	38	40	
6	0	0	0	0	508	507	0	515	38	40	
7	0	0	0	0	510	506	0	515	38	40	
8	0	0	0	0	507	505	0	519	38	38	
9	0	0	0	0	508	505	0	510	38	37	
10	0	0	0	0	510	507	0	492	38	37	
11	0	0	0	0	509	508	0	503	38	38	
12	0	0	0	0	508	509	0	516	38	39	
13	0	0	0	0	509	509	0	532	38	40	
14	0	0	0	0	507	508	0	538	38	40	
15	0	0	0	0	507	508	0	530	38	40	
0	0	0	0	0	510	510	0	532	38	39	
1	0	0	0	0	510	509	0	528	38	37	
2	0	0	0	0	508	510	0	520	38	37	
3	0	0	0	0	511	509	0	516	38	37	
4	0	0	0	0	508	508	0	496	38	38	
5	0	0	0	0	509	509	0	489	38	39	
6	0	0	0	0	509	510	0	492	38	40	
7	0	0	0	0	508	511	0	484	38	40	
8	0	0	0	0	508	509	0	479	38	39	
9	0	0	0	0	510	508	0	481	38	38	
10	0	0	0	0	510	508	0	498	38	37	
11	0	0	0	0	512	507	0	524	38	37	
12	0	0	0	0	508	508	0	544	38	38	
13	0	0	0	0	509	507	0	547	38	39	
14	0	0	0	0	510	508	0	534	38	40	
15	0	0	0	0	509	506	0	536	38	40	
0	0	0	0	0	509	507	0	537	38	40	
1	0	0	0	0	510	508	0	542	38	38	
2	0	0	0	0	511	507	0	537	38	37	
3	0	0	0	0	509	507	0	518	39	37	
4	0	0	0	0	507	504	0	518	38	38	
5	0	0	0	0	511	505	0	519	38	39	
6	0	0	0	0	509	505	0	514	38	40	
7	0	0	0	0	511	505	0	505	38	40	
8	0	0	0	0	509	505	0	487	38	40	
9	0	0	0	0	508	506	0	493	38	39	
10	0	0	0	0	511	508	0	508	38	37	
11	0	0	0	0	509	507	0	523	38	37	
12	0	0	0	0	509	508	0	520	38	37	
13	0	0	0	0	505	508	0	498	38	38	
14	0	0	0	0	508	508	0	477	38	39	
15	0	0	0	0	512	507	0	466	38	40	
0	0	0	0	0	508	507	0	457	38	40	
1	0	0	0	0	511	508	0	460	38	39	
2	0	0	0	0	509	508	0	473	38	38	
3	0	0	0	0	509	510	0	476	38	37	
4	0	0	0	0	510	509	0	492	38	37	
5	0	0	0	0	508	508	0	502	38	38	
6	0	0	0	0	511	508	0	500	38	39	
7	0	0	0	0	509	507	0	499	38	40	
8	0	0	0	0	508	508	0	503	38	40	
9	0	0	0	0	507	508	0	513	38	39	
10	0	0	0	0	511	507	0	516	38	38	
11	0	0	0	0	509	509	0	518	38	37	
12	0	0	0	0	508	509	0	529	38	37	
13	0	0	0	0	510	510	0	523	38	37	
14	0	0	0	0	508	510	0	510	38	39	
15	0	0	0	0	509	509	0	501	38	39	
0	0	0	0	0	511	508	0	514	38	40	
1	0	0	0	0	510	509	0	515	38	40	
2	0	0	0	0	509	509	0	520	38	38	
3	0	0	0	0	508	509	0	523	38	37	
4	0	0	0	0	510	509	0	518	38	36	
5	0	0	0	0	509	509	0	516	38	37	
6	0	0	0	0	509	509	0	508	38	38	
7	0	0	0	0	510	509	0	523	38	39	
8	0	0	0	0	510	510	0	544	38	40	
9	0	0	0	0	509	511	0	559	38	40	
10	0	0	0	0	509	511	0	554	38	39	
11	0	0	0	0	509	512	0	525	38	37	
12	0	0	0	0	511	509	0	502	38	36	
13	0	0	0	0	509	508	0	500	38	37	
14	0	0	0	0	509	510	0	505	38	38	
15	0	0	0	0	508	510	0	504	38	39	
0	0	0	0	0	508	511	0	474	38	40	
1	0	0	0	0	510	512	0	480	38	40	
2	0	0	0	0	508	512	0	494	38	39	
3	0	0	0	0	510	511	0	511	38	38	
4	0	0	0	0	509	509	0	523	38	37	
5	0	0	0	0	509	508	0	515	38	36	
6	0	0	0	0	509	507	0	522	38	37	
7	0	0	0	0	511	508	0	533	38	38	
8	0	0	0	0	508	508	0	537	38	39	
9	0	0	0	0	511	510	0	528	38	40	
10	0	0	0	0	511	507	0	499	38	39	
11	0	0	0	0	509	507	0	486	38	38	
12	0	0	0	0	510	509	0	481	38	37	
13	0	0	0	0	510	508	0	480	38	36	
14	0	0	0	0	508	507	0	488	38	37	
15	0	0	0	0	508	508	0	483	38	38	
0	0	0	0	0	504	508	0	487	38	39	
1	0	0	0	0	509	509	0	483	38	40	
2	0	0	0	0	510	511	0	472	38	40	
3	0	0	0	0	509	509	0	471	38	39	
4	0	0	0	0	509	510	0	451	38	37	
5	0	0	0	0	509	509	0	440	38	36	
6	0	0	0	0	509	508	0	441	38	37	
7	0	0	0	0	509	507	0	452	38	38	
8	0	0	0	0	511	506	0	454	38	39	
9	0	0	0	0	510	507	0	444	38	39	
10	0	0	0	0	508	506	0	442	38	40	
11	0	0	0	0	508	505	0	441	38	39	
12	0	0	0	0	510	507	0	448	38	38	
13	0	0	0	0	507	508	0	460	38	36	
14	0	0	0	0	508	508	0	464	38	36	
15	0	0	0	0	508	508	0	485	38	37	
0	0	0	0	0	510	507	0	509	38	38	
1	0	0	0	0	509	508	0	530	38	39	
2	0	0	0	0	508	509	0	546	38	40	
3	0	0	0	0	510	509	0	547	38	39	
4	0	0	0	0	510	509	0	556	38	38	
5	0	0	0	0	508	507	0	553	38	37	
6	0	0	0	0	511	507	0	533	38	36	
7	0	0	0	0	510	506	0	510	38	37	
8	0	0	0	0	510	507	0	487	38	38	
9	0	0	0	0	508	506	0	489	38	39	
10	0	0	0	0	510	506	0	490	38	39	
11	0	0	0	0	509	507	0	477	38	39	
12	0	0	0	0	508	507	0	476	38	38	
13	0	0	0	0	508	507	0	479	38	37	
14	0	0	0	0	510	510	0	500	38	36	
15	0	0	0	0	509	509	0	515	38	36	
0	0	0	0	0	509	511	0	513	38	37	
1	0	0	0	0	510	508	0	507	38	38	
2	0	0	0	0	510	508	0	486	38	39	
3	0	0	0	0	508	506	0	483	38	39	
4	0	0	0	0	507	505	0	481	38	39	
5	0	0	0	0	508	506	0	491	38	37	
6	0	0	0	0	511	507	0	510	38	36	
7	0	0	0	0	509	508	0	488	38	36	
8	0	0	0	0	510	507	0	491	38	37	
9	0	0	0	0	510	506	0	492	38	38	
10	0	0	0	0	510	508	0	495	38	39	
11	0	0	0	0	510	508	0	509	38	39	
12	0	0	0	0	510	508	0	526	38	39	
13	0	0	0	0	510	509	0	542	38	38	
14	0	0	0	0	511	509	0	551	38	36	
15	0	0	0	0	508	509	0	551	38	36	
0	0	0	0	0	507	507	0	542	38	36	
1	0	0	0	0	509	507	0	547	38	38	
2	0	0	0	0	508	507	0	566	38	38	
3	0	0	0	0	507	505	0	584	38	39	
4	0	0	0	0	507	505	0	588	38	39	
5	0	0	0	0	508	506	0	593	38	38	
6	0	0	0	0	510	507	0	596	38	37	
7	0	0	0	0	509	507	0	560	38	36	
8	0	0	0	0	508	507	0	527	38	36	
9	0	0	0	0	510	507	0	509	38	37	
10	0	0	0	0	509	506	0	499	38	38	
11	0	0	0	0	508	507	0	475	38	39	
12	0	0	0	0	508	508	0	465	38	39	
13	0	0	0	0	509	507	0	451	38	38	
14	0	0	0	0	508	508	0	448	38	37	
15	0	0	0	0	512	508	0	450	38	36	
0	0	0	0	0	510	507	0	451	38	36	
1	0	0	0	0	508	508	0	473	38	37	
2	0	0	0	0	509	510	0	496	38	38	
3	0	0	0	0	509	509	0	519	39	38	
4	0	0	0	0	508	509	0	524	38	39	
5	0	0	0	0	509	511	0	521	38	39	
6	0	0	0	0	510	509	0	528	38	37	
7	0	0	0	0	511	508	0	531	38	36	
8	0	0	0	0	508	509	0	536	38	36	
9	0	0	0	0	510	508	0	539	38	36	
10	0	0	0	0	509	508	0	533	38	37	
11	0	0	0	0	510	508	0	533	38	38	
12	0	0	0	0	510	508	0	545	38	39	
13	0	0	0	0	509	507	0	548	38	39	
14	0	0	0	0	510	507	0	537	38	38	
15	0	0	0	0	508	508	0	515	38	36	
0	0	0	0	0	509	508	0	505	38	36	
1	0	0	0	0	512	509	0	503	38	36	
2	0	0	0	0	510	508	0	499	38	37	
3	0	0	0	0	511	507	0	494	38	38	
4	0	0	0	0	509	505	0	475	38	38	
5	0	0	0	0	509	506	0	464	38	39	
6	0	0	0	0	508	506	0	470	38	38	
7	0	0	0	0	509	507	0	483	38	37	
8	0	0	0	0	508	504	0	497	38	36	
9	0	0	0	0	508	504	0	496	38	36	
10	0	0	0	0	510	504	0	496	38	36	
11	0	0	0	0	508	505	0	502	38	37	
12	0	0	0	0	507	504	0	507	38	38	
13	0	0	0	0	510	503	0	515	38	39	
14	0	0	0	0	511	505	0	501	38	38	
15	0	0	0	0	511	506	0	490	38	37	
0	0	0	0	0	511	506	0	491	38	36	
1	0	0	0	0	509	504	0	489	38	35	
2	0	0	0	0	509	505	0	493	38	36	
3	0	0	0	0	511	506	0	486	38	37	
4	0	0	0	0	511	507	0	488	38	38	
5	0	0	0	0	508	508	0	494	38	38	
6	0	0	0	0	508	510	0	513	38	38	
7	0	0	0	0	507	508	0	531	38	37	
8	0	0	0	0	511	508	0	526	38	36	
9	0	0	0	0	509	508	0	524	38	35	
10	0	0	0	0	510	508	0	536	38	36	
11	0	0	0	0	508	508	0	541	38	37	
12	0	0	0	0	509	508	0	539	38	37	
13	0	0	0	0	509	508	0	532	38	38	
14	0	0	0	0	509	508	0	534	38	38	
15	0	0	0	0	509	509	0	536	38	38	
0	0	0	0	0	510	510	0	532	38	37	
1	0	0	0	0	509	508	0	514	38	35	
2	0	0	0	0	508	508	0	499	38	35	
3	0	0	0	0	510	508	0	511	38	36	
4	0	0	0	0	508	508	0	517	38	37	
5	0	0	0	0	509	507	0	516	38	38	
6	0	0	0	0	512	506	0	515	38	38	
7	0	0	0	0	507	506	0	505	38	38	
8	0	0	0	0	511	508	0	509	38	37	
9	0	0	0	0	511	508	0	507	38	36	
10	0	0	0	0	509	508	0	501	38	35	
11	0	0	0	0	509	509	0	463	39	36	
12	0	0	0	0	508	509	0	433	38	37	
13	0	0	0	0	509	507	0	430	38	38	
14	0	0	0	0	509	508	0	444	38	38	
15	0	0	0	0	509	509	0	454	38	38	
0	0	0	0	0	510	508	0	461	38	37	
1	0	0	0	0	510	507	0	459	38	36	
2	0	0	0	0	509	507	0	467	38	35	
3	0	0	0	0	509	506	0	476	39	35	
4	0	0	0	0	507	505	0	489	38	36	
5	0	0	0	0	508	505	0	478	38	37	
6	0	0	0	0	510	507	0	456	38	38	
7	0	0	0	0	510	507	0	464	38	38	
8	0	0	0	0	509	507	0	483	38	37	
9	0	0	0	0	509	507	0	527	38	36	
10	0	0	0	0	510	506	0	543	38	35	
11	0	0	0	0	508	506	0	541	38	35	
12	0	0	0	0	509	507	0	536	38	36	
13	0	0	0	0	510	506	0	537	38	37	
14	0	0	0	0	508	505	0	548	38	38	
15	0	0	0	0	510	503	0	548	38	38	
0	0	0	0	0	508	504	0	536	38	38	
1	0	0	0	0	508	504	0	528	38	37	
2	0	0	0	0	509	504	0	534	38	36	
3	0	0	0	0	509	504	0	538	39	35	
4	0	0	0	0	508	504	0	538	38	36	
5	0	0	0	0	510	507	0	517	38	37	
6	0	0	0	0	509	507	0	521	38	37	
7	0	0	0	0	511	505	0	539	38	38	
8	0	0	0	0	510	506	0	547	38	38	
9	0	0	0	0	510	507	0	541	38	37	
10	0	0	0	0	511	508	0	521	38	36	
11	0	0	0	0	509	508	0	523	38	35	
12	0	0	0	0	509	506	0	546	38	35	
13	0	0	0	0	509	505	0	573	38	36	
14	0	0	0	0	509	508	0	599	38	37	
15	0	0	0	0	508	510	0	591	38	38	
0	0	0	0	0	508	511	0	574	38	38	
1	0	0	0	0	510	512	0	549	38	37	
2	0	0	0	0	511	511	0	527	38	36	
3	0	0	0	0	507	510	0	495	39	35	
4	0	0	0	0	509	510	0	483	38	35	
5	0	0	0	0	508	510	0	490	38	36	
6	0	0	0	0	509	511	0	504	38	37	
7	0	0	0	0	509	510	0	510	38	37	
8	0	0	0	0	508	508	0	507	38	38	
9	0	0	0	0	508	509	0	484	38	38	
10	0	0	0	0	508	508	0	481	38	37	
11	0	0	0	0	511	509	0	494	39	35	
12	0	0	0	0	510	510	0	507	38	35	
13	0	0	0	0	508	509	0	514	38	36	
14	0	0	0	0	510	507	0	508	38	36	
15	0	0	0	0	509	506	0	507	38	37	
0	0	0	0	0	509	505	0	511	38	38	
1	0	0	0	0	508	505	0	517	38	38	
2	0	0	0	0	510	505	0	517	38	37	
3	0	0	0	0	509	507	0	508	39	36	
4	0	0	0	0	509	507	0	517	38	35	
5	0	0	0	0	509	505	0	538	38	35	
6	0	0	0	0	511	507	0	555	38	36	
7	0	0	0	0	509	507	0	555	38	37	
8	0	0	0	0	510	507	0	548	38	38	
9	0	0	0	0	507	505	0	551	38	38	
10	0	0	0	0	508	506	0	560	38	37	
11	0	0	0	0	509	508	0	568	39	36	
12	0	0	0	0	508	508	0	569	38	35	
13	0	0	0	0	508	510	0	541	38	35	
14	0	0	0	0	509	511	0	519	38	36	
15	0	0	0	0	510	511	0	517	38	37	
0	0	0	0	0	508	509	0	529	38	37	
1	0	0	0	0	508	509	0	534	38	38	
2	0	0	0	0	511	509	0	535	38	37	
3	0	0	0	0	510	507	0	542	39	36	
4	0	0	0	0	510	507	0	534	38	35	
5	0	0	0	0	509	508	0	523	38	35	
6	0	0	0	0	509	508	0	503	38	35	
7	0	0	0	0	507	509	0	476	38	36	
8	0	0	0	0	508	509	0	470	38	37	
9	0	0	0	0	511	509	0	486	38	38	
10	0	0	0	0	508	508	0	513	38	37	
11	0	0	0	0	510	508	0	520	39	37	
12	0	0	0	0	509	507	0	501	38	36	
13	0	0	0	0	510	508	0	487	38	35	
14	0	0	0	0	509	507	0	485	38	35	
15	0	0	0	0	508	511	0	489	38	36	
0	0	0	0	0	507	509	0	502	39	37	
1	0	0	0	0	510	509	0	500	39	37	
2	0	0	0	0	510	508	0	515	39	38	
3	0	0	0	0	511	508	0	520	39	37	
4	0	0	0	0	508	510	0	527	39	36	
5	0	0	0	0	509	509	0	539	39	35	
6	0	0	0	0	508	508	0	521	39	35	
7	0	0	0	0	510	508	0	519	38	36	
8	0	0	0	0	508	507	0	535	39	37	
9	0	0	0	0	509	506	0	551	39	37	
10	0	0	0	0	508	506	0	560	39	38	
11	0	0	0	0	511	507	0	546	39	37	
12	0	0	0	0	509	506	0	534	39	36	
13	0	0	0	0	510	507	0	517	39	35	
14	0	0	0	0	511	506	0	505	39	35	
15	0	0	0	0	509	504	0	496	39	35	
0	0	0	0	0	509	506	0	489	39	36	
1	0	0	0	0	510	505	0	501	39	37	
2	0	0	0	0	510	506	0	511	39	37	
3	0	0	0	0	510	508	0	521	39	37	
4	0	0	0	0	509	508	0	516	39	37	
5	0	0	0	0	510	507	0	506	39	35	
6	0	0	0	0	509	507	0	510	39	35	
7	0	0	0	0	507	506	0	510	38	35	
8	0	0	0	0	509	506	0	511	39	36	
9	0	0	0	0	509	506	0	511	39	37	
10	0	0	0	0	507	505	0	508	39	37	
11	0	0	0	0	507	505	0	519	39	38	
12	0	0	0	0	510	504	0	516	39	37	
13	0	0	0	0	510	503	0	504	39	36	
14	0	0	0	0	509	505	0	493	39	35	
15	0	0	0	0	509	505	0	486	38	35	
0	0	0	0	0	507	505	0	472	38	36	
1	0	0	0	0	507	507	0	467	38	36	
2	0	0	0	0	511	508	0	478	38	37	
3	0	0	0	0	511	508	0	498	39	38	
4	0	0	0	0	508	508	0	491	39	37	
5	0	0	0	0	511	507	0	486	39	36	
6	0	0	0	0	510	507	0	483	39	35	
7	0	0	0	0	508	507	0	479	38	35	
8	0	0	0	0	509	507	0	482	39	35	
9	0	0	0	0	510	508	0	478	38	36	
10	0	0	0	0	510	509	0	482	39	37	
11	0	0	0	0	509	510	0	494	39	37	
12	0	0	0	0	509	508	0	512	38	37	
13	0	0	0	0	510	509	0	530	38	37	
14	0	0	0	0	509	508	0	544	38	35	
15	0	0	0	0	509	509	0	560	38	35	
0	0	0	0	0	509	509	0	559	38	35	
1	0	0	0	0	510	509	0	550	38	36	
2	0	0	0	0	509	508	0	520	38	37	
3	0	0	0	0	510	505	0	499	38	37	
4	0	0	0	0	511	507	0	501	38	37	
5	0	0	0	0	509	508	0	507	38	37	
6	0	0	0	0	509	507	0	509	38	36	
7	0	0	0	0	508	506	0	505	38	35	
8	0	0	0	0	508	507	0	503	38	35	
9	0	0	0	0	512	508	0	512	38	36	
10	0	0	0	0	508	508	0	526	38	36	
11	0	0	0	0	507	508	0	518	38	37	
12	0	0	0	0	507	507	0	507	38	37	
13	0	0	0	0	507	506	0	482	38	37	
14	0	0	0	0	508	507	0	485	38	36	
15	0	0	0	0	508	507	0	510	38	35	
0	0	0	0	0	508	508	0	536	38	35	
1	0	0	0	0	509	505	0	546	38	35	
2	0	0	0	0	510	507	0	556	38	36	
3	0	0	0	0	510	507	0	575	38	37	
4	0	0	0	0	510	509	0	586	38	37	
5	0	0	0	0	509	510	0	580	38	37	
6	0	0	0	0	513	509	0	563	38	36	
7	0	0	0	0	510	509	0	522	38	35	
8	0	0	0	0	509	508	0	505	38	35	
9	0	0	0	0	508	509	0	495	38	35	
10	0	0	0	0	508	510	0	478	38	36	
11	0	0	0	0	508	509	0	467	38	37	
12	0	0	0	0	510	509	0	453	38	37	
13	0	0	0	0	511	510	0	459	38	37	
14	0	0	0	0	510	510	0	472	38	37	
15	0	0	0	0	511	508	0	471	38	36	
0	0	0	0	0	510	508	0	481	38	35	
1	0	0	0	0	510	507	0	483	38	35	
2	0	0	0	0	509	507	0	495	38	36	
3	0	0	0	0	508	507	0	524	38	36	
4	0	0	0	0	508	508	0	548	38	37	
5	0	0	0	0	509	508	0	579	38	37	
6	0	0	0	0	509	508	0	564	38	37	
7	0	0	0	0	508	507	0	563	38	36	
8	0	0	0	0	509	507	0	560	38	35	
9	0	0	0	0	509	506	0	556	38	35	
10	0	0	0	0	508	506	0	556	38	35	
11	0	0	0	0	510	507	0	543	38	36	
12	0	0	0	0	508	507	0	535	38	37	
13	0	0	0	0	507	508	0	526	38	37	
14	0	0	0	0	508	506	0	518	38	37	
15	0	0	0	0	509	505	0	509	38	36	
0	0	0	0	0	511	507	0	499	38	35	
1	0	0	0	0	510	508	0	516	38	35	
2	0	0	0	0	510	507	0	533	38	35	
3	0	0	0	0	509	509	0	555	38	36	
4	0	0	0	0	509	509	0	556	38	36	
5	0	0	0	0	510	507	0	528	38	37	
6	0	0	0	0	510	507	0	510	38	37	
7	0	0	0	0	510	506	0	520	38	37	
8	0	0	0	0	510	506	0	525	38	36	
9	0	0	0	0	510	505	0	509	38	35	
10	0	0	0	0	508	508	0	477	38	35	
11	0	0	0	0	509	508	0	463	38	35	
12	0	0	0	0	510	507	0	475	38	36	
13	0	0	0	0	510	507	0	492	38	37	
14	0	0	0	0	509	508	0	502	38	37	
15	0	0	0	0	509	509	0	480	38	37	
0	0	0	0	0	506	508	0	468	38	36	
1	0	0	0	0	509	509	0	477	38	35	
2	0	0	0	0	511	510	0	468	38	35	
3	0	0	0	0	507	509	0	457	38	35	
4	0	0	0	0	511	509	0	452	38	36	
5	0	0	0	0	509	510	0	453	38	37	
6	0	0	0	0	507	508	0	460	38	37	
7	0	0	0	0	508	510	0	467	37	37	
8	0	0	0	0	509	509	0	467	37	36	
9	0	0	0	0	510	509	0	456	38	35	
10	0	0	0	0	508	509	0	467	38	35	
