# OpenSignals Text File Format. Version 1
# {"98:D3:61:FD:78:31": {"position": 0, "device": "bitalino_rev", "device name": "98:D3:61:FD:78:31", "device connection": "BTH98:D3:61:FD:78:31", "sampling rate": 1000, "resolution": [4, 1, 1, 1, 1, 10, 10, 10, 10, 6, 6], "firmware version": 1282, "comments": "", "keywords": "", "mode": 0, "sync interval": 2, "date": "2024-4-12", "time": "12:35:28.584", "channels": [1, 2, 3, 4, 5, 6], "sensor": ["RAW", "RAW", "RAW", "RAW", "RAW", "RAW"], "label": ["A1", "A2", "A3", "A4", "A5", "A6"], "column": ["nSeq", "I1", "I2", "O1", "O2", "A1", "A2", "A3", "A4", "A5", "A6"], "special": [{}, {}, {}, {}, {}, {}], "digital IO": [0, 0, 1, 1]}}
# EndOfHeader
0	0	0	0	0	509	507	0	537	39	55	
1	0	0	0	0	506	508	0	499	38	53	
2	0	0	0	0	509	508	0	420	38	53	
3	0	0	0	0	509	508	0	362	38	55	
4	0	0	0	0	508	508	0	317	38	56	
5	0	0	0	0	508	507	0	287	38	58	
6	0	0	0	0	507	508	0	247	38	58	
7	0	0	0	0	508	508	0	200	38	58	
8	0	0	0	0	510	508	0	191	39	56	
9	0	0	0	0	510	508	0	193	38	54	
10	0	0	0	0	509	508	0	196	38	53	
11	0	0	0	0	508	508	0	193	38	54	
12	0	0	0	0	509	509	0	174	38	56	
13	0	0	0	0	510	510	0	181	38	57	
14	0	0	0	0	509	510	0	162	38	58	
15	0	0	0	0	508	508	0	144	38	58	
0	0	0	0	0	509	508	0	132	39	57	
1	0	0	0	0	508	509	0	120	38	55	
2	0	0	0	0	507	510	0	129	38	53	
3	0	0	0	0	510	508	0	150	38	54	
4	0	0	0	0	511	505	0	142	38	55	
5	0	0	0	0	509	504	0	125	38	57	
6	0	0	0	0	508	505	0	85	38	58	
7	0	0	0	0	510	505	0	74	38	58	
8	0	0	0	0	511	505	0	76	39	57	
9	0	0	0	0	509	505	0	76	38	55	
10	0	0	0	0	508	506	0	81	38	54	
11	0	0	0	0	510	507	0	82	38	53	
12	0	0	0	0	508	506	0	106	38	55	
13	0	0	0	0	510	505	0	131	38	56	
14	0	0	0	0	511	505	0	156	38	58	
15	0	0	0	0	509	506	0	176	38	58	
0	0	0	0	0	510	505	0	162	39	58	
1	0	0	0	0	508	504	0	163	38	56	
2	0	0	0	0	509	505	0	182	38	54	
3	0	0	0	0	510	505	0	201	38	53	
4	0	0	0	0	507	505	0	217	38	54	
5	0	0	0	0	509	507	0	213	38	56	
6	0	0	0	0	509	507	0	216	38	57	
7	0	0	0	0	509	508	0	215	38	58	
8	0	0	0	0	507	508	0	211	39	58	
9	0	0	0	0	508	508	0	219	38	57	
10	0	0	0	0	507	508	0	210	38	55	
11	0	0	0	0	507	507	0	204	38	53	
12	0	0	0	0	509	507	0	207	38	54	
13	0	0	0	0	511	508	0	208	38	55	
14	0	0	0	0	510	508	0	230	38	57	
15	0	0	0	0	508	508	0	251	38	58	
0	0	0	0	0	511	510	0	276	39	58	
1	0	0	0	0	510	512	0	300	38	57	
2	0	0	0	0	508	512	0	312	38	55	
3	0	0	0	0	509	512	0	337	38	54	
4	0	0	0	0	508	509	0	333	38	53	
5	0	0	0	0	507	510	0	324	38	55	
6	0	0	0	0	508	511	0	317	38	56	
7	0	0	0	0	507	509	0	291	38	58	
8	0	0	0	0	508	508	0	278	39	58	
9	0	0	0	0	508	508	0	281	38	58	
10	0	0	0	0	507	508	0	295	38	56	
11	0	0	0	0	509	508	0	310	38	54	
12	0	0	0	0	509	507	0	317	38	53	
13	0	0	0	0	509	507	0	326	38	54	
14	0	0	0	0	510	508	0	318	38	56	
15	0	0	0	0	507	507	0	319	38	57	
0	0	0	0	0	508	508	0	318	39	58	
1	0	0	0	0	508	508	0	307	38	58	
2	0	0	0	0	510	508	0	290	38	57	
3	0	0	0	0	508	509	0	267	38	55	
4	0	0	0	0	509	508	0	260	38	53	
5	0	0	0	0	511	509	0	266	38	54	
6	0	0	0	0	509	510	0	278	38	55	
7	0	0	0	0	510	508	0	288	38	57	
8	0	0	0	0	509	507	0	312	39	58	
9	0	0	0	0	512	508	0	336	38	58	
10	0	0	0	0	511	508	0	353	38	57	
11	0	0	0	0	507	506	0	366	38	55	
12	0	0	0	0	511	507	0	380	38	54	
13	0	0	0	0	509	508	0	386	38	53	
14	0	0	0	0	509	507	0	403	38	55	
15	0	0	0	0	508	507	0	419	38	56	
0	0	0	0	0	508	507	0	425	39	58	
1	0	0	0	0	510	507	0	421	38	58	
2	0	0	0	0	509	506	0	398	38	58	
3	0	0	0	0	508	506	0	387	38	56	
4	0	0	0	0	509	508	0	393	38	54	
5	0	0	0	0	507	507	0	395	38	53	
6	0	0	0	0	508	507	0	392	38	54	
7	0	0	0	0	511	507	0	383	38	56	
8	0	0	0	0	510	507	0	369	39	57	
9	0	0	0	0	509	504	0	372	38	58	
10	0	0	0	0	510	505	0	388	38	58	
11	0	0	0	0	507	506	0	387	38	57	
12	0	0	0	0	509	507	0	370	38	55	
13	0	0	0	0	507	509	0	372	38	53	
14	0	0	0	0	508	508	0	379	38	54	
15	0	0	0	0	508	508	0	385	38	55	
0	0	0	0	0	508	508	0	391	39	57	
1	0	0	0	0	508	507	0	397	38	58	
2	0	0	0	0	508	508	0	419	38	58	
3	0	0	0	0	509	510	0	435	38	57	
4	0	0	0	0	509	511	0	441	38	55	
5	0	0	0	0	511	510	0	445	38	54	
6	0	0	0	0	509	508	0	435	38	53	
7	0	0	0	0	508	507	0	443	38	55	
8	0	0	0	0	509	507	0	449	39	56	
9	0	0	0	0	510	507	0	444	38	58	
10	0	0	0	0	510	505	0	446	38	58	
11	0	0	0	0	510	504	0	433	38	58	
12	0	0	0	0	510	504	0	428	38	56	
13	0	0	0	0	509	505	0	448	38	54	
14	0	0	0	0	509	505	0	462	38	53	
15	0	0	0	0	508	508	0	466	38	54	
0	0	0	0	0	510	508	0	461	39	56	
1	0	0	0	0	508	508	0	478	38	57	
2	0	0	0	0	509	508	0	503	38	58	
3	0	0	0	0	509	510	0	529	38	58	
4	0	0	0	0	508	509	0	542	38	57	
5	0	0	0	0	507	509	0	534	38	55	
6	0	0	0	0	503	509	0	531	38	53	
7	0	0	0	0	505	508	0	522	38	54	
8	0	0	0	0	507	508	0	505	39	55	
9	0	0	0	0	508	507	0	486	38	57	
10	0	0	0	0	510	505	0	471	38	58	
11	0	0	0	0	508	506	0	474	38	58	
12	0	0	0	0	511	508	0	477	38	57	
13	0	0	0	0	512	509	0	479	38	56	
14	0	0	0	0	512	508	0	463	38	54	
15	0	0	0	0	510	506	0	432	38	53	
0	0	0	0	0	510	505	0	430	39	55	
1	0	0	0	0	512	506	0	434	38	56	
2	0	0	0	0	510	505	0	435	38	58	
3	0	0	0	0	511	505	0	450	38	58	
4	0	0	0	0	511	505	0	466	38	58	
5	0	0	0	0	508	506	0	494	38	56	
6	0	0	0	0	508	507	0	528	38	54	
7	0	0	0	0	511	505	0	553	38	53	
8	0	0	0	0	509	507	0	567	39	54	
9	0	0	0	0	509	505	0	567	38	56	
10	0	0	0	0	509	506	0	556	38	57	
11	0	0	0	0	507	507	0	547	38	58	
12	0	0	0	0	511	509	0	538	38	58	
13	0	0	0	0	508	508	0	524	38	57	
14	0	0	0	0	509	508	0	499	38	55	
15	0	0	0	0	507	508	0	488	38	53	
0	0	0	0	0	507	509	0	492	39	54	
1	0	0	0	0	508	509	0	509	38	55	
2	0	0	0	0	508	508	0	517	38	57	
3	0	0	0	0	507	508	0	499	38	58	
4	0	0	0	0	508	507	0	492	38	58	
5	0	0	0	0	508	507	0	496	38	57	
6	0	0	0	0	510	507	0	504	38	56	
7	0	0	0	0	510	507	0	504	38	54	
8	0	0	0	0	510	507	0	500	39	53	
9	0	0	0	0	510	508	0	515	38	55	
10	0	0	0	0	509	509	0	539	38	56	
11	0	0	0	0	509	508	0	563	38	58	
12	0	0	0	0	511	507	0	554	38	58	
13	0	0	0	0	510	507	0	518	38	58	
14	0	0	0	0	511	508	0	502	38	56	
15	0	0	0	0	512	508	0	499	38	54	
0	0	0	0	0	509	508	0	501	39	53	
1	0	0	0	0	510	510	0	500	38	54	
2	0	0	0	0	510	510	0	487	38	56	
3	0	0	0	0	510	509	0	492	38	57	
4	0	0	0	0	510	508	0	470	38	58	
5	0	0	0	0	508	507	0	469	38	58	
6	0	0	0	0	509	507	0	478	38	57	
7	0	0	0	0	508	509	0	466	38	55	
8	0	0	0	0	509	508	0	474	39	53	
9	0	0	0	0	509	508	0	485	38	54	
10	0	0	0	0	509	508	0	507	38	55	
11	0	0	0	0	510	507	0	521	38	57	
12	0	0	0	0	508	506	0	515	38	58	
13	0	0	0	0	508	505	0	517	38	58	
14	0	0	0	0	505	507	0	523	38	57	
15	0	0	0	0	508	507	0	522	38	56	
0	0	0	0	0	508	506	0	515	39	54	
1	0	0	0	0	508	505	0	497	38	53	
2	0	0	0	0	509	506	0	492	38	55	
3	0	0	0	0	509	507	0	496	38	56	
4	0	0	0	0	510	507	0	512	38	58	
5	0	0	0	0	508	507	0	516	38	58	
6	0	0	0	0	510	508	0	503	38	58	
7	0	0	0	0	509	508	0	491	38	56	
8	0	0	0	0	508	509	0	480	39	54	
9	0	0	0	0	510	508	0	483	38	53	
10	0	0	0	0	511	508	0	469	38	54	
11	0	0	0	0	510	508	0	451	38	56	
12	0	0	0	0	511	507	0	457	38	57	
13	0	0	0	0	509	507	0	460	38	58	
14	0	0	0	0	508	508	0	476	38	58	
15	0	0	0	0	509	507	0	471	38	57	
0	0	0	0	0	511	508	0	459	39	55	
1	0	0	0	0	509	506	0	469	38	53	
2	0	0	0	0	508	506	0	480	38	54	
3	0	0	0	0	509	506	0	510	38	55	
4	0	0	0	0	508	508	0	522	38	57	
5	0	0	0	0	509	509	0	506	38	58	
6	0	0	0	0	511	510	0	496	38	58	
7	0	0	0	0	512	510	0	484	38	58	
8	0	0	0	0	511	511	0	480	39	56	
9	0	0	0	0	508	509	0	489	38	54	
10	0	0	0	0	508	509	0	492	38	53	
11	0	0	0	0	509	508	0	496	38	55	
12	0	0	0	0	509	509	0	506	38	56	
13	0	0	0	0	509	508	0	509	38	58	
14	0	0	0	0	509	508	0	505	38	58	
15	0	0	0	0	509	506	0	477	38	58	
0	0	0	0	0	510	505	0	464	39	56	
1	0	0	0	0	510	505	0	458	38	54	
2	0	0	0	0	507	506	0	455	38	53	
3	0	0	0	0	511	508	0	453	38	54	
4	0	0	0	0	509	508	0	438	38	56	
5	0	0	0	0	510	508	0	449	38	57	
6	0	0	0	0	510	509	0	490	38	58	
7	0	0	0	0	509	508	0	513	38	58	
8	0	0	0	0	511	508	0	533	39	57	
9	0	0	0	0	512	509	0	539	38	55	
10	0	0	0	0	510	510	0	551	38	53	
11	0	0	0	0	511	509	0	569	38	54	
12	0	0	0	0	510	509	0	572	38	55	
13	0	0	0	0	511	510	0	561	38	57	
14	0	0	0	0	508	510	0	542	38	58	
15	0	0	0	0	508	509	0	546	38	58	
0	0	0	0	0	509	508	0	555	39	58	
1	0	0	0	0	507	509	0	563	38	56	
2	0	0	0	0	507	509	0	562	38	54	
3	0	0	0	0	507	508	0	547	38	53	
4	0	0	0	0	505	508	0	544	38	55	
5	0	0	0	0	509	507	0	547	38	56	
6	0	0	0	0	507	507	0	545	38	58	
7	0	0	0	0	508	508	0	539	38	58	
8	0	0	0	0	509	508	0	532	39	58	
9	0	0	0	0	508	508	0	545	38	56	
10	0	0	0	0	509	509	0	550	38	54	
11	0	0	0	0	509	511	0	531	38	53	
12	0	0	0	0	510	511	0	523	38	54	
13	0	0	0	0	509	511	0	522	38	56	
14	0	0	0	0	510	511	0	525	38	57	
15	0	0	0	0	512	509	0	532	38	58	
0	0	0	0	0	511	510	0	538	39	58	
1	0	0	0	0	512	510	0	547	38	57	
2	0	0	0	0	510	509	0	532	38	55	
3	0	0	0	0	511	508	0	531	38	53	
4	0	0	0	0	510	509	0	537	38	54	
5	0	0	0	0	510	511	0	541	38	55	
6	0	0	0	0	510	511	0	541	38	57	
7	0	0	0	0	510	510	0	537	38	58	
8	0	0	0	0	509	508	0	542	39	58	
9	0	0	0	0	510	509	0	531	38	58	
10	0	0	0	0	510	508	0	533	38	56	
11	0	0	0	0	508	508	0	526	38	54	
12	0	0	0	0	509	509	0	507	38	53	
13	0	0	0	0	510	508	0	509	38	55	
14	0	0	0	0	509	508	0	523	38	56	
15	0	0	0	0	510	508	0	544	38	58	
0	0	0	0	0	511	508	0	575	39	58	
1	0	0	0	0	508	509	0	574	38	58	
2	0	0	0	0	507	509	0	575	38	56	
3	0	0	0	0	509	509	0	572	38	54	
4	0	0	0	0	509	508	0	559	38	53	
5	0	0	0	0	508	508	0	531	38	54	
6	0	0	0	0	508	507	0	495	38	56	
7	0	0	0	0	508	507	0	481	38	57	
8	0	0	0	0	509	506	0	486	39	58	
9	0	0	0	0	511	507	0	495	38	58	
10	0	0	0	0	511	507	0	507	38	57	
11	0	0	0	0	508	508	0	515	38	55	
12	0	0	0	0	508	509	0	536	38	54	
13	0	0	0	0	508	508	0	543	38	54	
14	0	0	0	0	509	508	0	544	38	55	
15	0	0	0	0	509	507	0	546	38	57	
0	0	0	0	0	510	507	0	530	39	58	
1	0	0	0	0	510	507	0	548	38	58	
2	0	0	0	0	510	509	0	571	38	58	
3	0	0	0	0	509	508	0	590	38	56	
4	0	0	0	0	512	507	0	600	38	54	
5	0	0	0	0	510	507	0	585	38	53	
6	0	0	0	0	510	506	0	577	38	55	
7	0	0	0	0	510	507	0	587	38	56	
8	0	0	0	0	510	507	0	588	39	58	
9	0	0	0	0	509	507	0	592	38	58	
10	0	0	0	0	509	507	0	589	38	58	
11	0	0	0	0	511	508	0	594	38	57	
12	0	0	0	0	511	506	0	601	38	54	
13	0	0	0	0	510	506	0	604	38	53	
14	0	0	0	0	509	507	0	607	38	54	
15	0	0	0	0	508	507	0	588	38	56	
0	0	0	0	0	509	507	0	583	39	57	
1	0	0	0	0	509	507	0	576	38	58	
2	0	0	0	0	510	508	0	558	38	58	
3	0	0	0	0	508	507	0	540	38	57	
4	0	0	0	0	508	507	0	518	38	55	
5	0	0	0	0	508	508	0	512	38	54	
6	0	0	0	0	511	506	0	521	38	54	
7	0	0	0	0	508	506	0	524	38	55	
8	0	0	0	0	508	504	0	542	39	57	
9	0	0	0	0	509	503	0	536	38	58	
10	0	0	0	0	510	504	0	542	38	58	
11	0	0	0	0	511	504	0	563	38	58	
12	0	0	0	0	510	504	0	589	38	56	
13	0	0	0	0	507	505	0	608	38	54	
14	0	0	0	0	508	505	0	595	38	53	
15	0	0	0	0	510	506	0	575	38	55	
0	0	0	0	0	509	507	0	568	39	56	
1	0	0	0	0	508	507	0	573	38	58	
2	0	0	0	0	509	506	0	570	38	58	
3	0	0	0	0	508	507	0	545	38	58	
4	0	0	0	0	509	507	0	528	38	57	
5	0	0	0	0	511	506	0	545	38	55	
6	0	0	0	0	508	507	0	563	38	53	
7	0	0	0	0	509	508	0	576	38	54	
8	0	0	0	0	508	507	0	572	39	56	
9	0	0	0	0	510	507	0	572	38	57	
10	0	0	0	0	511	506	0	579	38	58	
11	0	0	0	0	510	507	0	582	38	58	
12	0	0	0	0	510	507	0	570	38	57	
13	0	0	0	0	508	507	0	546	38	55	
14	0	0	0	0	508	505	0	542	38	54	
15	0	0	0	0	510	506	0	539	38	54	
0	0	0	0	0	508	507	0	545	39	55	
1	0	0	0	0	510	507	0	543	38	57	
2	0	0	0	0	510	506	0	523	38	58	
3	0	0	0	0	508	507	0	525	38	58	
4	0	0	0	0	511	508	0	541	38	58	
5	0	0	0	0	511	508	0	561	38	56	
6	0	0	0	0	508	508	0	568	38	54	
7	0	0	0	0	507	506	0	560	38	53	
8	0	0	0	0	507	506	0	561	39	55	
9	0	0	0	0	508	508	0	566	38	56	
10	0	0	0	0	506	508	0	565	38	58	
11	0	0	0	0	507	506	0	546	38	58	
12	0	0	0	0	510	506	0	521	38	58	
13	0	0	0	0	506	506	0	525	38	57	
14	0	0	0	0	509	508	0	535	38	55	
15	0	0	0	0	510	509	0	526	38	53	
0	0	0	0	0	509	508	0	529	39	54	
1	0	0	0	0	508	508	0	519	38	56	
2	0	0	0	0	511	510	0	529	38	57	
3	0	0	0	0	510	510	0	542	38	58	
4	0	0	0	0	511	508	0	537	38	58	
5	0	0	0	0	510	507	0	537	38	57	
6	0	0	0	0	511	507	0	550	38	55	
7	0	0	0	0	511	507	0	576	38	54	
8	0	0	0	0	510	507	0	600	39	54	
9	0	0	0	0	511	508	0	604	38	55	
10	0	0	0	0	512	508	0	607	38	57	
11	0	0	0	0	511	509	0	585	38	58	
12	0	0	0	0	509	509	0	573	38	58	
13	0	0	0	0	509	508	0	576	38	58	
14	0	0	0	0	508	507	0	581	38	56	
15	0	0	0	0	508	508	0	591	38	54	
0	0	0	0	0	508	507	0	599	39	53	
1	0	0	0	0	509	507	0	622	38	55	
2	0	0	0	0	510	505	0	643	38	56	
3	0	0	0	0	509	507	0	648	38	58	
4	0	0	0	0	509	507	0	629	38	58	
5	0	0	0	0	510	507	0	591	38	58	
6	0	0	0	0	508	507	0	572	38	57	
7	0	0	0	0	510	507	0	562	38	55	
8	0	0	0	0	511	505	0	562	39	53	
9	0	0	0	0	509	505	0	563	38	54	
10	0	0	0	0	509	505	0	558	38	56	
11	0	0	0	0	510	506	0	567	38	57	
12	0	0	0	0	508	507	0	575	38	58	
13	0	0	0	0	507	508	0	587	38	58	
14	0	0	0	0	510	505	0	590	38	57	
15	0	0	0	0	510	506	0	585	38	55	
0	0	0	0	0	508	505	0	597	39	54	
1	0	0	0	0	509	508	0	612	38	54	
2	0	0	0	0	509	506	0	612	38	55	
3	0	0	0	0	512	506	0	603	38	57	
4	0	0	0	0	511	505	0	586	38	58	
5	0	0	0	0	510	507	0	580	38	58	
6	0	0	0	0	510	507	0	582	38	58	
7	0	0	0	0	508	507	0	591	38	56	
8	0	0	0	0	507	507	0	587	39	54	
9	0	0	0	0	508	507	0	568	38	53	
10	0	0	0	0	509	509	0	545	38	55	
11	0	0	0	0	509	510	0	519	38	56	
12	0	0	0	0	510	509	0	532	38	58	
13	0	0	0	0	508	509	0	562	38	58	
14	0	0	0	0	512	509	0	570	38	58	
15	0	0	0	0	510	509	0	571	38	57	
0	0	0	0	0	512	507	0	560	39	55	
1	0	0	0	0	508	507	0	553	38	53	
2	0	0	0	0	509	508	0	563	38	54	
3	0	0	0	0	508	507	0	568	38	56	
4	0	0	0	0	508	507	0	590	38	57	
5	0	0	0	0	510	507	0	605	38	58	
6	0	0	0	0	509	506	0	609	38	58	
7	0	0	0	0	508	508	0	604	38	57	
8	0	0	0	0	507	507	0	601	39	55	
9	0	0	0	0	509	506	0	611	38	54	
10	0	0	0	0	509	507	0	598	38	54	
11	0	0	0	0	510	507	0	588	38	55	
12	0	0	0	0	508	508	0	589	38	57	
13	0	0	0	0	509	509	0	579	38	58	
14	0	0	0	0	507	508	0	580	38	58	
15	0	0	0	0	508	508	0	585	38	58	
0	0	0	0	0	509	509	0	585	39	56	
1	0	0	0	0	509	510	0	584	38	54	
2	0	0	0	0	510	508	0	567	38	53	
3	0	0	0	0	508	509	0	574	38	55	
4	0	0	0	0	510	508	0	585	38	56	
5	0	0	0	0	510	508	0	581	38	58	
6	0	0	0	0	507	506	0	579	38	58	
7	0	0	0	0	508	505	0	568	38	58	
8	0	0	0	0	510	505	0	579	39	57	
9	0	0	0	0	511	504	0	598	38	55	
10	0	0	0	0	510	505	0	613	38	53	
11	0	0	0	0	512	505	0	614	38	54	
12	0	0	0	0	508	504	0	592	38	56	
13	0	0	0	0	509	506	0	578	38	57	
14	0	0	0	0	508	508	0	574	38	58	
15	0	0	0	0	508	508	0	566	38	58	
0	0	0	0	0	508	508	0	573	39	57	
1	0	0	0	0	509	509	0	568	38	55	
2	0	0	0	0	507	510	0	572	38	54	
3	0	0	0	0	509	510	0	578	38	54	
4	0	0	0	0	511	507	0	580	38	55	
5	0	0	0	0	509	507	0	585	38	57	
6	0	0	0	0	509	507	0	590	38	58	
7	0	0	0	0	509	508	0	600	38	58	
8	0	0	0	0	508	508	0	598	39	58	
9	0	0	0	0	509	505	0	592	38	56	
10	0	0	0	0	509	506	0	590	38	54	
11	0	0	0	0	509	507	0	598	38	53	
12	0	0	0	0	510	508	0	608	38	55	
13	0	0	0	0	510	509	0	612	38	56	
14	0	0	0	0	508	509	0	615	38	58	
15	0	0	0	0	508	509	0	611	38	58	
0	0	0	0	0	509	510	0	600	39	58	
1	0	0	0	0	509	509	0	590	38	57	
2	0	0	0	0	510	510	0	594	38	55	
3	0	0	0	0	509	511	0	594	38	53	
4	0	0	0	0	508	511	0	584	38	54	
5	0	0	0	0	509	511	0	558	38	56	
6	0	0	0	0	509	511	0	560	38	57	
7	0	0	0	0	507	510	0	560	38	58	
8	0	0	0	0	508	508	0	554	39	58	
9	0	0	0	0	509	508	0	552	38	57	
10	0	0	0	0	509	509	0	540	38	55	
11	0	0	0	0	509	508	0	547	38	54	
12	0	0	0	0	510	508	0	553	38	54	
13	0	0	0	0	508	509	0	572	38	55	
14	0	0	0	0	510	509	0	577	38	57	
15	0	0	0	0	509	508	0	552	38	58	
0	0	0	0	0	509	507	0	543	39	58	
1	0	0	0	0	509	508	0	542	38	58	
2	0	0	0	0	508	508	0	546	38	56	
3	0	0	0	0	507	508	0	553	38	54	
4	0	0	0	0	509	507	0	543	38	53	
5	0	0	0	0	509	507	0	544	38	54	
6	0	0	0	0	507	508	0	548	38	56	
7	0	0	0	0	508	510	0	552	38	57	
8	0	0	0	0	511	509	0	556	39	58	
9	0	0	0	0	508	510	0	551	38	58	
10	0	0	0	0	511	509	0	556	38	57	
11	0	0	0	0	510	508	0	561	38	55	
12	0	0	0	0	509	510	0	568	38	53	
13	0	0	0	0	509	510	0	565	38	54	
14	0	0	0	0	509	510	0	549	38	56	
15	0	0	0	0	511	512	0	550	38	57	
0	0	0	0	0	511	513	0	557	39	58	
1	0	0	0	0	509	511	0	564	38	58	
2	0	0	0	0	511	510	0	564	38	57	
3	0	0	0	0	511	511	0	535	38	55	
4	0	0	0	0	509	511	0	527	38	54	
5	0	0	0	0	508	511	0	525	38	54	
6	0	0	0	0	508	511	0	534	38	55	
7	0	0	0	0	508	510	0	534	38	57	
8	0	0	0	0	509	509	0	516	39	58	
9	0	0	0	0	508	508	0	512	38	58	
10	0	0	0	0	508	508	0	522	38	58	
11	0	0	0	0	510	510	0	526	38	56	
12	0	0	0	0	509	511	0	534	38	54	
13	0	0	0	0	511	511	0	533	38	53	
14	0	0	0	0	509	512	0	540	38	54	
15	0	0	0	0	509	510	0	557	38	56	
0	0	0	0	0	508	509	0	570	39	57	
1	0	0	0	0	510	508	0	571	38	58	
2	0	0	0	0	511	508	0	545	38	58	
3	0	0	0	0	510	508	0	516	38	57	
4	0	0	0	0	509	508	0	502	38	55	
5	0	0	0	0	508	508	0	498	38	53	
6	0	0	0	0	510	507	0	516	38	54	
7	0	0	0	0	509	508	0	521	38	56	
8	0	0	0	0	508	508	0	519	39	57	
9	0	0	0	0	510	506	0	518	38	58	
10	0	0	0	0	509	505	0	528	38	58	
11	0	0	0	0	508	507	0	517	38	57	
12	0	0	0	0	508	508	0	490	38	56	
13	0	0	0	0	509	508	0	471	38	54	
14	0	0	0	0	510	508	0	463	38	54	
15	0	0	0	0	509	508	0	482	38	55	
0	0	0	0	0	510	508	0	496	39	57	
1	0	0	0	0	508	509	0	499	38	58	
2	0	0	0	0	509	509	0	511	38	58	
3	0	0	0	0	509	508	0	531	38	58	
4	0	0	0	0	509	508	0	532	38	56	
5	0	0	0	0	509	508	0	540	38	54	
6	0	0	0	0	508	508	0	545	38	53	
7	0	0	0	0	508	508	0	548	38	54	
8	0	0	0	0	509	507	0	555	39	56	
9	0	0	0	0	508	508	0	563	38	57	
10	0	0	0	0	508	506	0	579	38	58	
11	0	0	0	0	510	508	0	568	38	58	
12	0	0	0	0	511	509	0	573	38	57	
13	0	0	0	0	508	509	0	583	38	55	
14	0	0	0	0	508	509	0	593	38	53	
15	0	0	0	0	509	509	0	603	38	54	
0	0	0	0	0	511	509	0	602	39	56	
1	0	0	0	0	511	508	0	620	38	57	
2	0	0	0	0	509	508	0	635	38	58	
3	0	0	0	0	510	507	0	628	38	58	
4	0	0	0	0	512	508	0	628	38	57	
5	0	0	0	0	512	509	0	605	38	56	
6	0	0	0	0	512	509	0	600	38	54	
7	0	0	0	0	510	509	0	601	38	54	
8	0	0	0	0	508	509	0	592	39	55	
9	0	0	0	0	508	507	0	578	38	57	
10	0	0	0	0	508	508	0	551	38	58	
11	0	0	0	0	511	508	0	554	38	58	
12	0	0	0	0	512	508	0	566	38	58	
13	0	0	0	0	509	509	0	581	38	56	
14	0	0	0	0	510	509	0	592	38	54	
15	0	0	0	0	508	508	0	585	38	53	
0	0	0	0	0	510	507	0	583	39	54	
1	0	0	0	0	507	508	0	590	38	56	
2	0	0	0	0	507	508	0	595	38	57	
3	0	0	0	0	508	509	0	603	38	58	
4	0	0	0	0	509	508	0	583	38	58	
5	0	0	0	0	508	509	0	572	38	57	
6	0	0	0	0	510	509	0	568	38	55	
7	0	0	0	0	508	509	0	559	38	54	
8	0	0	0	0	511	508	0	551	39	54	
9	0	0	0	0	511	508	0	530	38	56	
10	0	0	0	0	510	509	0	515	38	57	
11	0	0	0	0	510	510	0	517	38	58	
12	0	0	0	0	511	508	0	527	38	58	
13	0	0	0	0	509	509	0	534	38	58	
14	0	0	0	0	509	509	0	526	38	56	
15	0	0	0	0	506	509	0	541	38	54	
0	0	0	0	0	510	510	0	557	39	54	
1	0	0	0	0	509	509	0	564	38	55	
2	0	0	0	0	510	508	0	555	38	57	
3	0	0	0	0	508	509	0	536	38	58	
4	0	0	0	0	508	509	0	535	38	58	
5	0	0	0	0	512	507	0	551	38	58	
6	0	0	0	0	509	507	0	563	38	56	
7	0	0	0	0	509	508	0	563	38	54	
8	0	0	0	0	510	509	0	553	39	53	
9	0	0	0	0	510	508	0	557	38	54	
10	0	0	0	0	508	508	0	566	38	56	
11	0	0	0	0	508	509	0	569	38	57	
12	0	0	0	0	509	508	0	567	38	58	
13	0	0	0	0	510	506	0	554	38	58	
14	0	0	0	0	510	507	0	567	38	57	
15	0	0	0	0	511	507	0	557	38	55	
0	0	0	0	0	509	507	0	563	39	54	
1	0	0	0	0	509	507	0	561	38	54	
2	0	0	0	0	508	507	0	541	38	55	
3	0	0	0	0	509	507	0	543	38	57	
4	0	0	0	0	510	506	0	560	38	58	
5	0	0	0	0	509	504	0	566	38	58	
6	0	0	0	0	508	506	0	560	38	58	
7	0	0	0	0	508	505	0	539	38	56	
8	0	0	0	0	511	506	0	548	39	54	
9	0	0	0	0	512	507	0	553	38	54	
10	0	0	0	0	512	506	0	558	38	55	
11	0	0	0	0	509	508	0	568	38	57	
12	0	0	0	0	510	509	0	551	38	58	
13	0	0	0	0	508	509	0	547	38	58	
14	0	0	0	0	510	510	0	547	38	58	
15	0	0	0	0	509	510	0	550	38	56	
0	0	0	0	0	508	508	0	556	39	54	
1	0	0	0	0	511	509	0	560	38	53	
2	0	0	0	0	509	508	0	572	38	54	
3	0	0	0	0	509	507	0	595	38	56	
4	0	0	0	0	508	507	0	597	38	57	
5	0	0	0	0	508	507	0	599	38	58	
6	0	0	0	0	509	507	0	573	38	58	
7	0	0	0	0	509	508	0	553	38	57	
8	0	0	0	0	507	508	0	546	39	55	
9	0	0	0	0	509	508	0	550	38	54	
10	0	0	0	0	508	508	0	558	38	54	
11	0	0	0	0	508	506	0	543	38	55	
12	0	0	0	0	511	506	0	543	38	57	
13	0	0	0	0	507	508	0	544	38	58	
14	0	0	0	0	508	509	0	536	38	58	
15	0	0	0	0	511	508	0	526	38	58	
0	0	0	0	0	508	507	0	512	39	56	
1	0	0	0	0	508	505	0	519	38	54	
2	0	0	0	0	510	508	0	541	38	54	
3	0	0	0	0	509	508	0	557	38	55	
4	0	0	0	0	511	507	0	568	38	57	
5	0	0	0	0	509	506	0	568	38	58	
6	0	0	0	0	508	505	0	562	38	58	
7	0	0	0	0	507	506	0	574	38	58	
8	0	0	0	0	507	505	0	588	39	56	
9	0	0	0	0	508	505	0	588	38	54	
10	0	0	0	0	508	506	0	561	38	53	
11	0	0	0	0	510	505	0	550	38	54	
12	0	0	0	0	512	505	0	536	38	56	
13	0	0	0	0	512	505	0	512	38	57	
14	0	0	0	0	507	506	0	500	38	58	
15	0	0	0	0	509	507	0	486	38	58	
0	0	0	0	0	510	507	0	494	39	57	
1	0	0	0	0	508	507	0	513	38	55	
2	0	0	0	0	510	511	0	520	38	54	
3	0	0	0	0	510	511	0	520	38	54	
4	0	0	0	0	510	510	0	513	38	55	
5	0	0	0	0	509	509	0	504	38	57	
6	0	0	0	0	510	510	0	501	38	58	
7	0	0	0	0	509	508	0	502	38	58	
8	0	0	0	0	510	509	0	512	39	58	
9	0	0	0	0	508	509	0	525	38	56	
10	0	0	0	0	509	511	0	550	38	54	
11	0	0	0	0	511	510	0	567	38	54	
12	0	0	0	0	510	508	0	568	38	55	
13	0	0	0	0	510	508	0	564	38	56	
14	0	0	0	0	508	507	0	550	38	58	
15	0	0	0	0	508	508	0	558	38	58	
0	0	0	0	0	508	506	0	566	39	58	
1	0	0	0	0	510	505	0	567	38	56	
2	0	0	0	0	508	505	0	569	38	54	
3	0	0	0	0	508	506	0	559	38	53	
4	0	0	0	0	510	506	0	547	38	54	
5	0	0	0	0	510	507	0	545	38	56	
6	0	0	0	0	511	508	0	543	38	57	
7	0	0	0	0	509	507	0	550	38	58	
8	0	0	0	0	509	507	0	568	39	58	
9	0	0	0	0	510	507	0	596	38	57	
10	0	0	0	0	509	508	0	609	38	55	
11	0	0	0	0	509	507	0	612	38	54	
12	0	0	0	0	508	506	0	607	38	54	
13	0	0	0	0	510	505	0	581	38	55	
14	0	0	0	0	510	505	0	560	38	57	
15	0	0	0	0	511	504	0	546	38	58	
0	0	0	0	0	508	504	0	533	39	58	
1	0	0	0	0	510	504	0	524	38	58	
2	0	0	0	0	508	504	0	502	38	56	
3	0	0	0	0	510	505	0	504	38	54	
4	0	0	0	0	509	506	0	502	38	54	
5	0	0	0	0	511	507	0	496	38	55	
6	0	0	0	0	510	508	0	496	38	56	
7	0	0	0	0	512	508	0	487	38	58	
8	0	0	0	0	508	509	0	488	39	58	
9	0	0	0	0	509	511	0	486	38	58	
10	0	0	0	0	510	511	0	480	38	57	
11	0	0	0	0	509	510	0	480	38	54	
12	0	0	0	0	508	510	0	484	38	53	
13	0	0	0	0	511	510	0	504	38	54	
14	0	0	0	0	510	511	0	522	38	56	
15	0	0	0	0	509	510	0	522	38	57	
0	0	0	0	0	509	509	0	518	39	58	
1	0	0	0	0	510	508	0	502	38	58	
2	0	0	0	0	510	508	0	486	38	57	
3	0	0	0	0	510	509	0	486	38	55	
4	0	0	0	0	508	509	0	484	38	54	
5	0	0	0	0	510	509	0	493	38	54	
6	0	0	0	0	509	509	0	500	38	55	
7	0	0	0	0	507	508	0	515	38	57	
8	0	0	0	0	508	508	0	524	39	58	
9	0	0	0	0	508	507	0	534	38	58	
10	0	0	0	0	510	506	0	551	38	58	
11	0	0	0	0	508	506	0	558	38	56	
12	0	0	0	0	508	507	0	572	38	54	
13	0	0	0	0	510	507	0	584	38	54	
14	0	0	0	0	511	507	0	588	38	55	
15	0	0	0	0	509	506	0	560	38	56	
0	0	0	0	0	509	505	0	531	39	58	
1	0	0	0	0	510	506	0	527	38	58	
2	0	0	0	0	511	504	0	535	38	58	
3	0	0	0	0	509	505	0	540	38	57	
4	0	0	0	0	509	505	0	540	38	54	
5	0	0	0	0	509	505	0	527	38	53	
6	0	0	0	0	510	506	0	525	38	54	
7	0	0	0	0	510	507	0	526	38	56	
8	0	0	0	0	509	507	0	525	39	57	
9	0	0	0	0	508	508	0	532	38	58	
10	0	0	0	0	506	508	0	531	38	58	
11	0	0	0	0	508	507	0	529	38	57	
12	0	0	0	0	509	506	0	528	38	55	
13	0	0	0	0	508	507	0	508	38	54	
14	0	0	0	0	508	508	0	497	38	54	
15	0	0	0	0	509	507	0	503	38	55	
0	0	0	0	0	509	509	0	504	39	57	
1	0	0	0	0	507	508	0	500	38	58	
2	0	0	0	0	509	508	0	504	38	58	
3	0	0	0	0	510	507	0	515	38	58	
4	0	0	0	0	511	510	0	526	38	56	
5	0	0	0	0	511	511	0	533	38	54	
6	0	0	0	0	511	511	0	537	38	53	
7	0	0	0	0	511	510	0	523	38	55	
8	0	0	0	0	511	508	0	504	39	56	
9	0	0	0	0	509	506	0	485	38	58	
10	0	0	0	0	509	507	0	487	38	58	
11	0	0	0	0	510	507	0	507	38	58	
12	0	0	0	0	509	507	0	520	38	57	
13	0	0	0	0	508	507	0	529	38	55	
14	0	0	0	0	510	507	0	527	38	53	
15	0	0	0	0	510	508	0	523	38	54	
0	0	0	0	0	508	508	0	520	39	56	
1	0	0	0	0	509	509	0	532	38	57	
2	0	0	0	0	509	508	0	539	38	58	
3	0	0	0	0	509	509	0	543	38	58	
4	0	0	0	0	509	507	0	544	38	57	
5	0	0	0	0	511	508	0	544	38	55	
6	0	0	0	0	509	509	0	550	38	54	
7	0	0	0	0	510	508	0	547	38	54	
8	0	0	0	0	509	506	0	536	39	55	
9	0	0	0	0	510	507	0	552	38	57	
10	0	0	0	0	511	507	0	578	38	58	
11	0	0	0	0	508	507	0	584	38	58	
12	0	0	0	0	508	507	0	572	38	58	
13	0	0	0	0	509	507	0	571	38	56	
14	0	0	0	0	508	506	0	555	38	54	
15	0	0	0	0	508	506	0	550	38	53	
0	0	0	0	0	510	506	0	547	39	55	
1	0	0	0	0	509	507	0	546	38	56	
2	0	0	0	0	509	507	0	540	38	58	
3	0	0	0	0	508	508	0	548	38	58	
4	0	0	0	0	510	508	0	551	38	58	
5	0	0	0	0	509	507	0	535	38	57	
6	0	0	0	0	511	507	0	515	38	55	
7	0	0	0	0	510	508	0	481	38	53	
8	0	0	0	0	510	508	0	475	39	54	
9	0	0	0	0	510	508	0	487	38	56	
10	0	0	0	0	508	508	0	490	38	57	
11	0	0	0	0	510	508	0	499	38	58	
12	0	0	0	0	508	507	0	469	38	58	
13	0	0	0	0	508	506	0	465	38	57	
14	0	0	0	0	508	508	0	459	38	55	
15	0	0	0	0	508	507	0	440	38	54	
0	0	0	0	0	507	505	0	421	39	54	
1	0	0	0	0	507	505	0	404	38	55	
2	0	0	0	0	509	505	0	415	38	57	
3	0	0	0	0	509	505	0	440	38	58	
4	0	0	0	0	511	506	0	457	38	58	
5	0	0	0	0	509	507	0	476	38	58	
6	0	0	0	0	510	507	0	493	38	56	
7	0	0	0	0	511	507	0	525	38	54	
8	0	0	0	0	508	508	0	559	39	53	
9	0	0	0	0	509	508	0	569	38	55	
10	0	0	0	0	509	508	0	571	38	56	
11	0	0	0	0	510	509	0	579	38	58	
12	0	0	0	0	511	511	0	592	38	58	
13	0	0	0	0	508	513	0	608	38	58	
14	0	0	0	0	510	510	0	606	38	57	
15	0	0	0	0	509	511	0	600	38	55	
0	0	0	0	0	508	510	0	587	39	53	
1	0	0	0	0	510	509	0	586	38	54	
2	0	0	0	0	508	509	0	595	38	56	
3	0	0	0	0	508	507	0	580	38	57	
4	0	0	0	0	509	507	0	568	38	58	
5	0	0	0	0	510	509	0	570	38	58	
6	0	0	0	0	512	511	0	585	38	57	
7	0	0	0	0	509	510	0	606	38	55	
8	0	0	0	0	510	511	0	620	39	54	
9	0	0	0	0	509	510	0	616	38	54	
10	0	0	0	0	510	509	0	595	38	55	
11	0	0	0	0	509	509	0	583	38	57	
12	0	0	0	0	509	507	0	554	38	58	
13	0	0	0	0	509	506	0	535	38	58	
14	0	0	0	0	508	507	0	537	38	58	
15	0	0	0	0	510	506	0	535	38	56	
0	0	0	0	0	509	505	0	542	39	54	
1	0	0	0	0	509	505	0	548	38	53	
2	0	0	0	0	508	506	0	543	38	55	
3	0	0	0	0	509	507	0	542	38	56	
4	0	0	0	0	510	508	0	536	38	58	
5	0	0	0	0	508	508	0	549	38	58	
6	0	0	0	0	510	507	0	559	38	58	
7	0	0	0	0	509	505	0	567	38	57	
8	0	0	0	0	511	507	0	559	39	55	
9	0	0	0	0	510	507	0	538	38	53	
10	0	0	0	0	509	508	0	540	38	54	
11	0	0	0	0	508	509	0	535	38	56	
12	0	0	0	0	508	509	0	516	38	57	
13	0	0	0	0	510	507	0	496	38	58	
14	0	0	0	0	509	509	0	477	38	58	
15	0	0	0	0	510	511	0	483	38	57	
0	0	0	0	0	508	511	0	487	39	55	
1	0	0	0	0	509	510	0	491	38	54	
2	0	0	0	0	508	509	0	488	38	54	
3	0	0	0	0	508	508	0	473	38	55	
4	0	0	0	0	509	508	0	476	38	57	
5	0	0	0	0	510	509	0	487	38	58	
6	0	0	0	0	510	509	0	499	38	58	
7	0	0	0	0	510	508	0	510	38	58	
8	0	0	0	0	510	508	0	509	39	56	
9	0	0	0	0	508	509	0	515	38	54	
10	0	0	0	0	510	509	0	528	38	53	
11	0	0	0	0	510	509	0	528	38	55	
12	0	0	0	0	511	506	0	532	38	56	
13	0	0	0	0	510	505	0	531	38	58	
14	0	0	0	0	508	505	0	537	38	58	
15	0	0	0	0	509	506	0	537	38	58	
0	0	0	0	0	510	508	0	533	39	57	
1	0	0	0	0	510	508	0	542	38	55	
2	0	0	0	0	507	508	0	537	38	53	
3	0	0	0	0	507	507	0	527	38	54	
4	0	0	0	0	507	505	0	524	38	56	
5	0	0	0	0	509	505	0	520	38	57	
6	0	0	0	0	510	505	0	515	38	58	
7	0	0	0	0	509	506	0	518	38	58	
8	0	0	0	0	508	507	0	515	39	57	
9	0	0	0	0	512	508	0	527	38	55	
10	0	0	0	0	509	508	0	528	38	54	
11	0	0	0	0	508	509	0	516	38	54	
12	0	0	0	0	509	509	0	492	38	55	
13	0	0	0	0	507	509	0	477	38	57	
14	0	0	0	0	508	509	0	471	38	58	
15	0	0	0	0	508	508	0	462	38	58	
0	0	0	0	0	508	507	0	458	39	58	
1	0	0	0	0	509	508	0	447	38	56	
2	0	0	0	0	508	509	0	454	38	54	
3	0	0	0	0	508	509	0	468	38	53	
4	0	0	0	0	508	509	0	475	38	55	
5	0	0	0	0	508	508	0	483	38	56	
6	0	0	0	0	508	506	0	491	38	58	
7	0	0	0	0	510	506	0	505	38	58	
8	0	0	0	0	509	508	0	509	39	58	
9	0	0	0	0	508	508	0	511	38	57	
10	0	0	0	0	510	507	0	508	38	55	
11	0	0	0	0	508	508	0	492	38	53	
12	0	0	0	0	508	510	0	491	38	54	
13	0	0	0	0	510	511	0	488	38	56	
14	0	0	0	0	510	510	0	483	38	57	
15	0	0	0	0	507	509	0	473	38	58	
0	0	0	0	0	509	510	0	455	39	58	
1	0	0	0	0	511	509	0	443	38	57	
2	0	0	0	0	510	508	0	447	38	55	
3	0	0	0	0	510	509	0	469	38	54	
4	0	0	0	0	512	510	0	484	38	54	
5	0	0	0	0	510	508	0	479	38	55	
6	0	0	0	0	509	510	0	474	38	57	
7	0	0	0	0	508	511	0	491	38	58	
8	0	0	0	0	510	512	0	508	39	58	
9	0	0	0	0	510	511	0	496	38	58	
10	0	0	0	0	510	511	0	464	38	56	
11	0	0	0	0	510	511	0	464	38	54	
12	0	0	0	0	510	511	0	483	38	53	
13	0	0	0	0	509	509	0	484	38	54	
14	0	0	0	0	508	509	0	486	38	56	
15	0	0	0	0	508	508	0	473	38	57	
0	0	0	0	0	509	509	0	482	39	58	
1	0	0	0	0	510	510	0	498	38	58	
2	0	0	0	0	510	509	0	508	38	57	
3	0	0	0	0	512	508	0	515	38	55	
4	0	0	0	0	509	506	0	502	38	53	
5	0	0	0	0	511	504	0	500	38	54	
6	0	0	0	0	509	504	0	514	38	56	
7	0	0	0	0	510	505	0	525	38	57	
8	0	0	0	0	511	505	0	534	39	58	
9	0	0	0	0	510	507	0	535	38	58	
10	0	0	0	0	510	509	0	548	38	57	
11	0	0	0	0	508	509	0	554	38	55	
12	0	0	0	0	507	509	0	559	38	54	
13	0	0	0	0	509	509	0	542	38	54	
14	0	0	0	0	509	508	0	523	38	55	
15	0	0	0	0	509	507	0	513	38	57	
0	0	0	0	0	511	507	0	513	39	58	
1	0	0	0	0	509	507	0	514	38	58	
2	0	0	0	0	511	508	0	512	38	58	
3	0	0	0	0	509	508	0	505	38	56	
4	0	0	0	0	508	508	0	510	38	54	
5	0	0	0	0	510	507	0	526	38	53	
6	0	0	0	0	508	508	0	541	38	54	
7	0	0	0	0	509	507	0	545	38	56	
8	0	0	0	0	508	508	0	532	39	57	
9	0	0	0	0	509	508	0	533	38	58	
10	0	0	0	0	510	508	0	527	38	58	
11	0	0	0	0	509	508	0	520	38	57	
12	0	0	0	0	511	508	0	516	38	55	
13	0	0	0	0	509	507	0	504	38	53	
14	0	0	0	0	511	505	0	513	38	54	
15	0	0	0	0	512	507	0	516	38	56	
0	0	0	0	0	510	506	0	504	39	57	
1	0	0	0	0	510	508	0	498	38	58	
2	0	0	0	0	509	509	0	492	38	58	
3	0	0	0	0	509	509	0	493	38	57	
4	0	0	0	0	510	509	0	508	38	55	
5	0	0	0	0	509	511	0	516	38	54	
6	0	0	0	0	509	509	0	522	38	54	
7	0	0	0	0	509	509	0	526	38	55	
8	0	0	0	0	508	510	0	536	39	57	
9	0	0	0	0	509	510	0	551	38	58	
10	0	0	0	0	508	507	0	556	38	58	
11	0	0	0	0	509	508	0	543	38	58	
12	0	0	0	0	508	507	0	515	38	56	
13	0	0	0	0	508	505	0	490	38	54	
14	0	0	0	0	508	505	0	482	38	53	
15	0	0	0	0	510	507	0	491	38	54	
0	0	0	0	0	510	508	0	504	39	56	
1	0	0	0	0	510	509	0	495	38	57	
2	0	0	0	0	510	508	0	495	38	58	
3	0	0	0	0	509	507	0	495	38	58	
4	0	0	0	0	508	508	0	486	38	57	
5	0	0	0	0	511	508	0	489	38	55	
6	0	0	0	0	511	508	0	482	38	53	
7	0	0	0	0	508	507	0	485	38	54	
8	0	0	0	0	508	507	0	488	39	56	
9	0	0	0	0	508	508	0	488	38	57	
10	0	0	0	0	508	508	0	495	38	58	
11	0	0	0	0	510	507	0	504	38	58	
12	0	0	0	0	506	507	0	522	38	57	
13	0	0	0	0	510	506	0	533	38	56	
14	0	0	0	0	510	506	0	529	38	54	
15	0	0	0	0	510	505	0	528	38	54	
0	0	0	0	0	509	505	0	511	39	55	
1	0	0	0	0	508	505	0	513	38	57	
2	0	0	0	0	510	506	0	515	38	58	
3	0	0	0	0	509	507	0	512	38	58	
4	0	0	0	0	509	507	0	514	38	58	
5	0	0	0	0	510	508	0	504	38	56	
6	0	0	0	0	509	506	0	501	38	54	
7	0	0	0	0	511	507	0	503	38	53	
8	0	0	0	0	507	506	0	507	39	54	
9	0	0	0	0	507	506	0	507	38	56	
10	0	0	0	0	510	506	0	506	38	57	
11	0	0	0	0	511	505	0	521	38	58	
12	0	0	0	0	509	505	0	527	38	58	
13	0	0	0	0	509	505	0	528	38	57	
14	0	0	0	0	508	503	0	532	38	55	
15	0	0	0	0	509	504	0	523	38	53	
0	0	0	0	0	511	507	0	532	39	54	
1	0	0	0	0	513	506	0	548	38	56	
2	0	0	0	0	509	508	0	565	38	57	
3	0	0	0	0	510	508	0	561	38	58	
4	0	0	0	0	511	507	0	532	38	58	
5	0	0	0	0	508	508	0	520	38	57	
6	0	0	0	0	510	508	0	513	38	56	
7	0	0	0	0	508	508	0	513	38	54	
8	0	0	0	0	508	508	0	512	39	54	
9	0	0	0	0	510	508	0	511	38	55	
10	0	0	0	0	510	508	0	511	38	57	
11	0	0	0	0	512	508	0	505	38	58	
12	0	0	0	0	510	507	0	500	38	58	
13	0	0	0	0	509	508	0	497	38	58	
14	0	0	0	0	508	508	0	494	38	56	
15	0	0	0	0	508	507	0	510	38	54	
0	0	0	0	0	508	507	0	526	39	53	
1	0	0	0	0	507	506	0	537	38	54	
2	0	0	0	0	508	504	0	533	38	56	
3	0	0	0	0	509	505	0	523	38	57	
4	0	0	0	0	511	506	0	521	38	58	
5	0	0	0	0	510	507	0	526	38	58	
6	0	0	0	0	510	508	0	526	38	57	
7	0	0	0	0	509	507	0	520	38	55	
8	0	0	0	0	510	506	0	494	39	53	
9	0	0	0	0	510	505	0	483	38	54	
10	0	0	0	0	508	504	0	476	38	55	
11	0	0	0	0	508	507	0	474	38	57	
12	0	0	0	0	507	507	0	481	38	58	
13	0	0	0	0	511	508	0	480	38	58	
14	0	0	0	0	508	510	0	484	38	58	
15	0	0	0	0	509	509	0	483	38	56	
0	0	0	0	0	508	509	0	496	39	54	
1	0	0	0	0	510	510	0	504	38	54	
2	0	0	0	0	510	511	0	502	38	55	
3	0	0	0	0	510	509	0	515	38	57	
4	0	0	0	0	510	510	0	528	38	58	
5	0	0	0	0	508	509	0	538	38	58	
6	0	0	0	0	511	508	0	542	38	58	
7	0	0	0	0	507	507	0	530	38	56	
8	0	0	0	0	511	508	0	540	39	54	
9	0	0	0	0	510	508	0	546	38	53	
10	0	0	0	0	510	508	0	553	38	54	
11	0	0	0	0	508	508	0	564	38	56	
12	0	0	0	0	508	508	0	557	38	57	
13	0	0	0	0	511	507	0	552	38	58	
14	0	0	0	0	509	506	0	545	38	58	
15	0	0	0	0	508	506	0	543	38	57	
0	0	0	0	0	509	507	0	541	39	55	
1	0	0	0	0	510	507	0	536	38	54	
2	0	0	0	0	509	508	0	538	38	54	
3	0	0	0	0	510	510	0	538	38	55	
4	0	0	0	0	510	511	0	543	38	57	
5	0	0	0	0	510	509	0	531	38	58	
6	0	0	0	0	509	509	0	511	38	58	
7	0	0	0	0	510	507	0	510	38	58	
8	0	0	0	0	508	507	0	517	39	56	
9	0	0	0	0	509	505	0	515	38	54	
10	0	0	0	0	509	506	0	513	38	54	
11	0	0	0	0	509	507	0	521	38	55	
12	0	0	0	0	509	508	0	536	38	56	
13	0	0	0	0	509	508	0	548	38	58	
14	0	0	0	0	508	508	0	555	38	58	
15	0	0	0	0	510	509	0	566	38	58	
0	0	0	0	0	508	509	0	582	39	56	
1	0	0	0	0	509	508	0	603	38	54	
2	0	0	0	0	509	508	0	611	38	53	
3	0	0	0	0	510	510	0	608	38	54	
4	0	0	0	0	511	508	0	596	38	56	
5	0	0	0	0	509	508	0	567	38	57	
6	0	0	0	0	508	509	0	536	38	58	
7	0	0	0	0	508	509	0	514	38	58	
8	0	0	0	0	508	509	0	507	39	57	
9	0	0	0	0	506	507	0	494	38	55	
10	0	0	0	0	510	508	0	465	38	54	
11	0	0	0	0	509	508	0	443	38	54	
12	0	0	0	0	509	508	0	423	38	55	
13	0	0	0	0	509	509	0	432	38	57	
14	0	0	0	0	509	510	0	422	38	58	
15	0	0	0	0	509	509	0	424	38	58	
0	0	0	0	0	509	509	0	431	39	58	
1	0	0	0	0	512	508	0	431	38	56	
2	0	0	0	0	511	510	0	419	38	54	
3	0	0	0	0	511	511	0	403	38	54	
4	0	0	0	0	509	508	0	400	38	55	
5	0	0	0	0	509	508	0	413	38	56	
6	0	0	0	0	508	508	0	441	38	58	
7	0	0	0	0	508	510	0	480	38	58	
8	0	0	0	0	510	508	0	507	39	58	
9	0	0	0	0	510	509	0	519	38	56	
10	0	0	0	0	509	508	0	519	38	54	
11	0	0	0	0	507	508	0	511	38	53	
12	0	0	0	0	512	508	0	518	38	54	
13	0	0	0	0	510	510	0	522	38	56	
14	0	0	0	0	508	510	0	511	38	57	
15	0	0	0	0	510	509	0	496	38	58	
0	0	0	0	0	510	509	0	486	39	58	
1	0	0	0	0	508	509	0	500	38	57	
2	0	0	0	0	510	509	0	489	38	55	
3	0	0	0	0	508	510	0	471	38	54	
4	0	0	0	0	509	508	0	469	38	54	
5	0	0	0	0	510	507	0	481	38	55	
6	0	0	0	0	509	506	0	486	38	57	
7	0	0	0	0	510	507	0	484	38	58	
8	0	0	0	0	510	508	0	482	39	58	
9	0	0	0	0	510	508	0	492	38	58	
10	0	0	0	0	510	510	0	496	38	56	
11	0	0	0	0	507	509	0	497	38	54	
12	0	0	0	0	508	509	0	501	38	54	
13	0	0	0	0	508	510	0	517	38	55	
14	0	0	0	0	508	508	0	531	38	56	
15	0	0	0	0	509	507	0	551	38	58	
0	0	0	0	0	509	508	0	539	39	58	
1	0	0	0	0	509	509	0	514	38	58	
2	0	0	0	0	511	508	0	504	38	56	
3	0	0	0	0	511	509	0	510	38	54	
4	0	0	0	0	508	508	0	522	38	53	
5	0	0	0	0	509	509	0	544	38	54	
6	0	0	0	0	509	509	0	553	38	56	
7	0	0	0	0	509	508	0	537	38	57	
8	0	0	0	0	510	507	0	527	39	58	
9	0	0	0	0	510	507	0	530	38	58	
10	0	0	0	0	508	508	0	533	38	57	
11	0	0	0	0	509	508	0	537	38	55	
12	0	0	0	0	511	509	0	541	38	54	
13	0	0	0	0	509	509	0	556	38	54	
14	0	0	0	0	507	507	0	568	38	55	
15	0	0	0	0	508	508	0	572	38	57	
0	0	0	0	0	509	507	0	557	39	58	
1	0	0	0	0	510	506	0	529	38	58	
2	0	0	0	0	509	505	0	527	38	58	
3	0	0	0	0	512	505	0	537	38	56	
4	0	0	0	0	510	505	0	543	38	54	
5	0	0	0	0	512	504	0	529	38	53	
6	0	0	0	0	509	505	0	511	38	55	
7	0	0	0	0	511	505	0	518	38	56	
8	0	0	0	0	510	507	0	522	39	58	
9	0	0	0	0	509	508	0	511	38	58	
10	0	0	0	0	510	507	0	498	38	58	
11	0	0	0	0	510	508	0	488	38	56	
12	0	0	0	0	509	508	0	506	38	54	
13	0	0	0	0	510	507	0	524	38	53	
14	0	0	0	0	508	504	0	541	38	54	
15	0	0	0	0	508	504	0	543	38	56	
0	0	0	0	0	509	505	0	538	39	57	
1	0	0	0	0	509	506	0	536	38	58	
2	0	0	0	0	508	508	0	529	38	58	
3	0	0	0	0	510	507	0	519	38	57	
4	0	0	0	0	510	507	0	517	38	55	
5	0	0	0	0	508	507	0	508	38	54	
6	0	0	0	0	508	507	0	524	38	54	
7	0	0	0	0	509	508	0	539	38	55	
8	0	0	0	0	510	508	0	553	39	57	
9	0	0	0	0	509	508	0	563	38	58	
10	0	0	0	0	508	507	0	550	38	58	
11	0	0	0	0	508	506	0	532	38	58	
12	0	0	0	0	511	505	0	520	38	56	
13	0	0	0	0	507	505	0	519	38	54	
14	0	0	0	0	508	506	0	516	38	53	
15	0	0	0	0	510	506	0	510	38	55	
0	0	0	0	0	506	505	0	492	39	56	
1	0	0	0	0	510	503	0	487	38	58	
2	0	0	0	0	510	504	0	489	38	58	
3	0	0	0	0	508	503	0	483	38	58	
4	0	0	0	0	508	505	0	465	38	57	
5	0	0	0	0	508	503	0	467	38	54	
6	0	0	0	0	510	504	0	474	38	53	
7	0	0	0	0	509	505	0	485	38	54	
8	0	0	0	0	510	504	0	499	39	56	
9	0	0	0	0	511	504	0	510	38	57	
10	0	0	0	0	510	505	0	513	38	58	
11	0	0	0	0	509	505	0	498	38	58	
12	0	0	0	0	509	507	0	495	38	57	
13	0	0	0	0	509	507	0	475	38	55	
14	0	0	0	0	509	508	0	444	38	54	
15	0	0	0	0	510	509	0	429	38	54	
0	0	0	0	0	509	510	0	416	39	55	
1	0	0	0	0	509	511	0	411	38	57	
2	0	0	0	0	509	510	0	408	38	58	
3	0	0	0	0	509	512	0	411	38	58	
4	0	0	0	0	508	510	0	418	38	58	
5	0	0	0	0	509	509	0	422	38	56	
6	0	0	0	0	510	507	0	417	38	54	
7	0	0	0	0	508	507	0	408	38	53	
8	0	0	0	0	509	507	0	408	39	55	
9	0	0	0	0	510	505	0	416	38	56	
10	0	0	0	0	508	506	0	413	38	58	
11	0	0	0	0	507	507	0	420	38	58	
12	0	0	0	0	507	508	0	413	38	58	
13	0	0	0	0	507	509	0	409	38	57	
14	0	0	0	0	508	509	0	422	38	55	
15	0	0	0	0	509	509	0	441	38	53	
0	0	0	0	0	505	508	0	455	39	54	
1	0	0	0	0	507	508	0	467	38	56	
2	0	0	0	0	508	509	0	468	38	57	
3	0	0	0	0	507	507	0	468	38	58	
4	0	0	0	0	508	507	0	479	38	58	
5	0	0	0	0	509	508	0	494	38	57	
6	0	0	0	0	509	508	0	487	38	55	
7	0	0	0	0	510	507	0	487	38	54	
8	0	0	0	0	509	507	0	492	39	54	
9	0	0	0	0	511	506	0	499	38	55	
10	0	0	0	0	509	505	0	508	38	57	
11	0	0	0	0	510	506	0	520	38	58	
12	0	0	0	0	511	507	0	524	38	58	
13	0	0	0	0	512	506	0	541	38	58	
14	0	0	0	0	510	508	0	549	38	56	
15	0	0	0	0	509	508	0	558	38	54	
0	0	0	0	0	511	508	0	574	39	53	
1	0	0	0	0	511	508	0	559	38	55	
2	0	0	0	0	508	508	0	553	38	56	
3	0	0	0	0	510	508	0	550	38	58	
4	0	0	0	0	508	510	0	550	38	58	
5	0	0	0	0	509	509	0	549	38	58	
6	0	0	0	0	507	510	0	536	38	57	
7	0	0	0	0	508	509	0	547	38	55	
8	0	0	0	0	508	508	0	553	39	53	
9	0	0	0	0	510	509	0	564	38	54	
10	0	0	0	0	511	510	0	574	38	56	
11	0	0	0	0	513	510	0	552	38	57	
12	0	0	0	0	511	511	0	540	38	58	
13	0	0	0	0	509	510	0	537	38	58	
14	0	0	0	0	510	509	0	541	38	57	
15	0	0	0	0	510	510	0	548	38	55	
0	0	0	0	0	509	510	0	549	39	54	
1	0	0	0	0	510	510	0	547	38	54	
2	0	0	0	0	509	508	0	530	38	55	
3	0	0	0	0	507	508	0	523	38	57	
4	0	0	0	0	510	507	0	518	38	58	
5	0	0	0	0	510	507	0	499	38	58	
6	0	0	0	0	508	508	0	495	38	58	
7	0	0	0	0	511	508	0	502	38	56	
8	0	0	0	0	507	507	0	515	39	54	
9	0	0	0	0	508	507	0	526	38	53	
10	0	0	0	0	510	509	0	524	38	55	
11	0	0	0	0	511	510	0	538	38	56	
12	0	0	0	0	512	510	0	557	38	58	
13	0	0	0	0	508	509	0	570	38	58	
14	0	0	0	0	510	509	0	561	38	58	
15	0	0	0	0	509	508	0	528	38	57	
0	0	0	0	0	509	507	0	524	39	55	
1	0	0	0	0	511	509	0	534	38	53	
2	0	0	0	0	509	510	0	550	38	54	
3	0	0	0	0	509	511	0	555	38	56	
4	0	0	0	0	508	511	0	543	38	57	
5	0	0	0	0	508	510	0	542	38	58	
6	0	0	0	0	509	511	0	542	38	58	
7	0	0	0	0	508	512	0	532	38	57	
8	0	0	0	0	511	511	0	510	39	55	
9	0	0	0	0	509	511	0	487	38	54	
10	0	0	0	0	507	510	0	501	38	54	
11	0	0	0	0	508	510	0	529	38	55	
12	0	0	0	0	508	510	0	547	38	57	
13	0	0	0	0	507	510	0	534	38	58	
14	0	0	0	0	509	510	0	505	38	58	
15	0	0	0	0	509	509	0	502	38	58	
0	0	0	0	0	509	509	0	501	39	56	
1	0	0	0	0	508	509	0	493	38	54	
2	0	0	0	0	509	510	0	482	38	53	
3	0	0	0	0	507	510	0	484	38	55	
4	0	0	0	0	508	511	0	511	38	56	
5	0	0	0	0	508	511	0	531	38	58	
6	0	0	0	0	509	510	0	527	38	58	
7	0	0	0	0	510	508	0	523	38	58	
8	0	0	0	0	511	507	0	521	39	57	
9	0	0	0	0	509	508	0	536	38	55	
10	0	0	0	0	510	508	0	553	38	53	
11	0	0	0	0	510	509	0	566	38	54	
12	0	0	0	0	511	508	0	579	38	56	
13	0	0	0	0	508	507	0	580	38	57	
14	0	0	0	0	510	508	0	577	38	58	
15	0	0	0	0	509	507	0	564	38	58	
0	0	0	0	0	509	507	0	557	39	57	
1	0	0	0	0	509	506	0	551	38	55	
2	0	0	0	0	508	507	0	546	38	54	
3	0	0	0	0	510	505	0	545	38	54	
4	0	0	0	0	509	505	0	551	38	55	
5	0	0	0	0	508	504	0	568	38	57	
6	0	0	0	0	508	506	0	548	38	58	
7	0	0	0	0	508	507	0	510	38	58	
8	0	0	0	0	508	506	0	496	39	58	
9	0	0	0	0	510	505	0	508	38	56	
10	0	0	0	0	512	505	0	534	38	54	
11	0	0	0	0	509	507	0	556	38	53	
12	0	0	0	0	510	507	0	558	38	55	
13	0	0	0	0	511	507	0	555	38	56	
14	0	0	0	0	510	506	0	556	38	58	
15	0	0	0	0	509	505	0	544	38	58	
0	0	0	0	0	508	506	0	526	39	58	
1	0	0	0	0	508	507	0	500	38	57	
2	0	0	0	0	510	508	0	500	38	55	
3	0	0	0	0	508	508	0	518	38	53	
4	0	0	0	0	509	509	0	532	38	54	
5	0	0	0	0	508	508	0	545	38	56	
6	0	0	0	0	510	508	0	542	38	57	
7	0	0	0	0	508	506	0	542	38	58	
8	0	0	0	0	508	506	0	542	39	58	
9	0	0	0	0	509	505	0	549	38	57	
10	0	0	0	0	511	505	0	557	38	55	
11	0	0	0	0	510	506	0	555	38	54	
12	0	0	0	0	510	508	0	551	38	54	
13	0	0	0	0	509	509	0	540	38	55	
14	0	0	0	0	511	511	0	538	38	57	
15	0	0	0	0	511	510	0	549	38	58	
0	0	0	0	0	510	509	0	559	39	58	
1	0	0	0	0	511	508	0	570	38	58	
2	0	0	0	0	508	507	0	584	38	56	
3	0	0	0	0	509	508	0	591	38	54	
4	0	0	0	0	510	508	0	573	38	54	
5	0	0	0	0	507	507	0	555	38	55	
6	0	0	0	0	510	507	0	553	38	56	
7	0	0	0	0	508	506	0	555	38	58	
8	0	0	0	0	509	507	0	557	39	58	
9	0	0	0	0	509	508	0	564	38	58	
10	0	0	0	0	508	509	0	547	38	57	
11	0	0	0	0	509	509	0	544	38	55	
12	0	0	0	0	509	507	0	549	38	54	
13	0	0	0	0	510	507	0	541	38	54	
14	0	0	0	0	512	508	0	532	38	56	
15	0	0	0	0	508	509	0	520	38	57	
0	0	0	0	0	509	507	0	515	39	58	
1	0	0	0	0	510	509	0	518	38	58	
2	0	0	0	0	510	510	0	531	38	57	
3	0	0	0	0	510	508	0	536	38	56	
4	0	0	0	0	508	507	0	538	38	54	
5	0	0	0	0	509	508	0	525	38	54	
6	0	0	0	0	510	508	0	529	38	55	
7	0	0	0	0	512	510	0	527	38	57	
8	0	0	0	0	511	511	0	513	39	58	
9	0	0	0	0	510	509	0	492	38	58	
10	0	0	0	0	510	508	0	486	38	58	
11	0	0	0	0	508	507	0	507	38	56	
12	0	0	0	0	509	509	0	535	38	54	
13	0	0	0	0	510	508	0	541	38	54	
14	0	0	0	0	508	509	0	526	38	55	
15	0	0	0	0	509	509	0	525	38	56	
0	0	0	0	0	508	508	0	522	39	58	
1	0	0	0	0	509	509	0	529	38	58	
2	0	0	0	0	508	508	0	526	38	58	
3	0	0	0	0	506	508	0	503	38	57	
4	0	0	0	0	505	508	0	501	38	55	
5	0	0	0	0	508	509	0	508	38	54	
6	0	0	0	0	510	510	0	508	38	54	
7	0	0	0	0	507	509	0	502	38	56	
8	0	0	0	0	508	509	0	481	39	57	
9	0	0	0	0	509	506	0	470	38	58	
10	0	0	0	0	508	508	0	465	38	58	
11	0	0	0	0	508	508	0	460	38	57	
12	0	0	0	0	508	508	0	448	38	56	
13	0	0	0	0	509	508	0	424	38	54	
14	0	0	0	0	509	509	0	408	38	54	
15	0	0	0	0	508	511	0	424	38	55	
0	0	0	0	0	513	511	0	454	39	57	
1	0	0	0	0	512	510	0	474	38	58	
2	0	0	0	0	512	511	0	478	38	58	
3	0	0	0	0	510	510	0	476	38	58	
4	0	0	0	0	510	510	0	468	38	56	
5	0	0	0	0	509	510	0	471	38	54	
6	0	0	0	0	512	508	0	472	38	54	
7	0	0	0	0	510	508	0	466	38	55	
8	0	0	0	0	510	506	0	480	39	56	
9	0	0	0	0	510	505	0	494	38	58	
10	0	0	0	0	508	507	0	491	38	58	
11	0	0	0	0	509	504	0	486	38	58	
12	0	0	0	0	511	504	0	480	38	57	
13	0	0	0	0	509	506	0	488	38	55	
14	0	0	0	0	509	507	0	504	38	54	
15	0	0	0	0	510	504	0	513	38	54	
0	0	0	0	0	510	506	0	520	39	56	
1	0	0	0	0	508	505	0	512	38	57	
2	0	0	0	0	507	505	0	504	38	58	
3	0	0	0	0	507	505	0	506	38	58	
4	0	0	0	0	508	507	0	515	38	57	
5	0	0	0	0	508	507	0	529	38	56	
6	0	0	0	0	509	508	0	527	38	54	
7	0	0	0	0	507	508	0	529	38	54	
8	0	0	0	0	510	508	0	539	39	55	
9	0	0	0	0	508	507	0	546	38	57	
10	0	0	0	0	508	506	0	551	38	58	
11	0	0	0	0	510	507	0	538	38	58	
12	0	0	0	0	511	508	0	554	38	58	
13	0	0	0	0	510	508	0	566	38	56	
14	0	0	0	0	510	509	0	555	38	54	
15	0	0	0	0	508	508	0	544	38	53	
0	0	0	0	0	509	508	0	502	39	54	
1	0	0	0	0	508	507	0	493	38	56	
2	0	0	0	0	511	508	0	496	38	57	
3	0	0	0	0	509	508	0	502	38	58	
4	0	0	0	0	509	507	0	525	38	58	
5	0	0	0	0	511	506	0	524	38	57	
6	0	0	0	0	508	507	0	539	38	55	
7	0	0	0	0	508	507	0	537	38	54	
8	0	0	0	0	508	507	0	529	39	54	
9	0	0	0	0	510	507	0	531	38	56	
10	0	0	0	0	510	507	0	506	38	57	
11	0	0	0	0	507	506	0	502	38	58	
12	0	0	0	0	510	507	0	512	38	58	
13	0	0	0	0	509	509	0	531	38	58	
14	0	0	0	0	510	510	0	541	38	56	
15	0	0	0	0	510	510	0	519	38	54	
0	0	0	0	0	509	509	0	512	39	54	
1	0	0	0	0	510	508	0	505	38	55	
2	0	0	0	0	508	507	0	493	38	57	
3	0	0	0	0	507	507	0	479	38	58	
4	0	0	0	0	508	508	0	472	38	58	
5	0	0	0	0	508	508	0	487	38	58	
6	0	0	0	0	510	508	0	513	38	56	
7	0	0	0	0	509	508	0	551	38	54	
8	0	0	0	0	511	507	0	557	39	53	
9	0	0	0	0	510	508	0	546	38	54	
10	0	0	0	0	509	509	0	528	38	56	
11	0	0	0	0	509	508	0	500	38	57	
12	0	0	0	0	510	508	0	472	38	58	
13	0	0	0	0	509	509	0	445	38	58	
14	0	0	0	0	509	508	0	430	38	57	
15	0	0	0	0	507	508	0	428	38	55	
0	0	0	0	0	509	507	0	428	39	54	
1	0	0	0	0	510	507	0	455	38	54	
2	0	0	0	0	509	508	0	478	38	56	
3	0	0	0	0	511	508	0	499	38	57	
4	0	0	0	0	509	508	0	529	38	58	
5	0	0	0	0	511	510	0	545	38	58	
6	0	0	0	0	509	510	0	547	38	58	
7	0	0	0	0	507	510	0	542	38	56	
8	0	0	0	0	507	510	0	524	39	54	
9	0	0	0	0	510	511	0	520	38	54	
10	0	0	0	0	508	511	0	509	38	55	
11	0	0	0	0	511	511	0	496	38	57	
12	0	0	0	0	510	512	0	490	38	58	
13	0	0	0	0	510	512	0	488	38	58	
14	0	0	0	0	511	509	0	512	38	58	
15	0	0	0	0	508	508	0	510	38	56	
0	0	0	0	0	507	506	0	506	39	54	
1	0	0	0	0	510	506	0	512	38	53	
2	0	0	0	0	506	506	0	497	38	54	
3	0	0	0	0	509	505	0	492	38	56	
4	0	0	0	0	508	505	0	495	38	57	
5	0	0	0	0	510	505	0	510	38	58	
6	0	0	0	0	509	505	0	500	38	58	
7	0	0	0	0	507	506	0	481	38	57	
8	0	0	0	0	508	506	0	488	39	55	
9	0	0	0	0	508	506	0	510	38	54	
10	0	0	0	0	508	508	0	545	38	54	
11	0	0	0	0	507	508	0	553	38	56	
12	0	0	0	0	509	508	0	539	38	57	
13	0	0	0	0	507	509	0	544	38	58	
14	0	0	0	0	510	508	0	548	38	58	
15	0	0	0	0	508	508	0	524	38	58	
0	0	0	0	0	508	508	0	504	39	56	
1	0	0	0	0	510	508	0	480	38	54	
2	0	0	0	0	508	509	0	471	38	54	
3	0	0	0	0	511	509	0	473	38	55	
4	0	0	0	0	510	511	0	480	38	57	
5	0	0	0	0	510	511	0	488	38	58	
6	0	0	0	0	510	509	0	481	38	58	
7	0	0	0	0	511	508	0	481	38	58	
8	0	0	0	0	508	510	0	482	39	56	
9	0	0	0	0	509	511	0	479	38	54	
10	0	0	0	0	513	511	0	499	38	53	
11	0	0	0	0	510	511	0	506	38	54	
12	0	0	0	0	510	510	0	528	38	56	
13	0	0	0	0	511	509	0	553	38	57	
14	0	0	0	0	511	510	0	564	38	58	
15	0	0	0	0	510	510	0	567	38	58	
0	0	0	0	0	508	509	0	554	39	57	
1	0	0	0	0	508	508	0	557	38	55	
2	0	0	0	0	510	509	0	567	38	54	
3	0	0	0	0	511	508	0	563	38	54	
4	0	0	0	0	510	509	0	556	38	55	
5	0	0	0	0	511	508	0	539	38	57	
6	0	0	0	0	510	507	0	527	38	58	
7	0	0	0	0	509	508	0	525	38	58	
8	0	0	0	0	509	509	0	536	39	58	
9	0	0	0	0	511	509	0	558	38	56	
10	0	0	0	0	510	510	0	578	38	54	
11	0	0	0	0	509	508	0	600	38	54	
12	0	0	0	0	510	507	0	612	38	55	
13	0	0	0	0	510	505	0	607	38	57	
14	0	0	0	0	509	504	0	591	38	58	
15	0	0	0	0	509	505	0	573	38	58	
0	0	0	0	0	508	506	0	573	39	58	
1	0	0	0	0	507	505	0	579	38	56	
2	0	0	0	0	505	506	0	577	38	54	
3	0	0	0	0	508	507	0	561	38	53	
4	0	0	0	0	511	507	0	529	38	54	
5	0	0	0	0	510	507	0	512	38	56	
6	0	0	0	0	508	508	0	503	38	57	
7	0	0	0	0	508	507	0	498	38	58	
8	0	0	0	0	507	507	0	504	39	58	
9	0	0	0	0	511	508	0	507	38	57	
10	0	0	0	0	511	507	0	514	38	55	
11	0	0	0	0	508	508	0	521	38	54	
12	0	0	0	0	510	507	0	527	38	54	
13	0	0	0	0	509	507	0	526	38	55	
14	0	0	0	0	511	505	0	522	38	57	
15	0	0	0	0	511	504	0	540	38	58	
0	0	0	0	0	509	505	0	555	39	58	
1	0	0	0	0	508	505	0	543	38	58	
2	0	0	0	0	508	506	0	527	38	56	
3	0	0	0	0	510	506	0	503	38	54	
4	0	0	0	0	510	505	0	494	38	54	
5	0	0	0	0	510	504	0	496	38	55	
6	0	0	0	0	510	504	0	511	38	56	
7	0	0	0	0	509	506	0	517	38	58	
8	0	0	0	0	510	504	0	501	39	58	
9	0	0	0	0	508	504	0	508	38	58	
10	0	0	0	0	508	507	0	530	38	57	
11	0	0	0	0	511	507	0	555	38	54	
12	0	0	0	0	510	509	0	566	38	54	
13	0	0	0	0	507	508	0	542	38	54	
14	0	0	0	0	508	507	0	539	38	56	
15	0	0	0	0	509	507	0	536	38	57	
0	0	0	0	0	508	507	0	536	39	58	
1	0	0	0	0	508	506	0	535	38	58	
2	0	0	0	0	510	508	0	542	38	57	
3	0	0	0	0	508	508	0	544	38	55	
4	0	0	0	0	508	508	0	561	38	54	
5	0	0	0	0	510	509	0	583	38	54	
6	0	0	0	0	509	509	0	593	38	55	
7	0	0	0	0	512	508	0	569	38	57	
8	0	0	0	0	510	507	0	546	39	58	
9	0	0	0	0	509	506	0	524	38	58	
10	0	0	0	0	509	505	0	507	38	58	
11	0	0	0	0	507	505	0	508	38	56	
12	0	0	0	0	508	505	0	513	38	54	
13	0	0	0	0	508	505	0	533	38	54	
14	0	0	0	0	510	504	0	551	38	55	
15	0	0	0	0	509	506	0	552	38	56	
0	0	0	0	0	510	507	0	543	39	58	
1	0	0	0	0	510	507	0	539	38	58	
2	0	0	0	0	510	508	0	555	38	58	
3	0	0	0	0	510	507	0	579	38	57	
4	0	0	0	0	511	508	0	591	38	55	
5	0	0	0	0	510	507	0	591	38	53	
6	0	0	0	0	511	507	0	573	38	54	
7	0	0	0	0	511	506	0	567	38	56	
8	0	0	0	0	510	509	0	567	39	57	
9	0	0	0	0	510	510	0	577	38	58	
10	0	0	0	0	509	509	0	591	38	58	
11	0	0	0	0	510	508	0	585	38	57	
12	0	0	0	0	509	508	0	583	38	55	
13	0	0	0	0	509	509	0	587	38	54	
14	0	0	0	0	509	508	0	558	38	54	
15	0	0	0	0	509	508	0	524	38	55	
0	0	0	0	0	509	508	0	504	39	57	
1	0	0	0	0	509	507	0	523	38	58	
2	0	0	0	0	510	508	0	527	38	58	
3	0	0	0	0	509	508	0	528	38	58	
4	0	0	0	0	509	506	0	523	38	56	
5	0	0	0	0	510	506	0	505	38	54	
6	0	0	0	0	508	504	0	517	38	54	
7	0	0	0	0	508	506	0	514	38	55	
8	0	0	0	0	507	508	0	517	39	56	
9	0	0	0	0	506	508	0	508	38	58	
10	0	0	0	0	506	509	0	487	38	58	
11	0	0	0	0	507	508	0	479	38	58	
12	0	0	0	0	506	508	0	472	38	57	
13	0	0	0	0	507	506	0	465	38	55	
14	0	0	0	0	510	505	0	470	38	53	
15	0	0	0	0	509	505	0	463	38	54	
0	0	0	0	0	510	506	0	471	39	56	
1	0	0	0	0	512	508	0	478	38	57	
2	0	0	0	0	509	508	0	455	38	58	
3	0	0	0	0	510	509	0	440	38	58	
4	0	0	0	0	509	508	0	427	38	57	
5	0	0	0	0	511	508	0	429	38	55	
6	0	0	0	0	511	507	0	429	38	54	
7	0	0	0	0	508	508	0	408	38	54	
8	0	0	0	0	508	507	0	395	39	55	
9	0	0	0	0	508	505	0	392	38	57	
10	0	0	0	0	509	505	0	409	38	58	
11	0	0	0	0	511	507	0	430	38	58	
12	0	0	0	0	508	506	0	432	38	58	
13	0	0	0	0	508	505	0	432	38	56	
14	0	0	0	0	508	506	0	424	38	54	
15	0	0	0	0	510	507	0	443	38	54	
0	0	0	0	0	508	507	0	459	39	55	
1	0	0	0	0	508	506	0	452	38	56	
2	0	0	0	0	508	507	0	448	38	58	
3	0	0	0	0	511	508	0	439	38	58	
4	0	0	0	0	510	507	0	445	38	58	
5	0	0	0	0	510	506	0	455	38	57	
6	0	0	0	0	511	506	0	454	38	55	
7	0	0	0	0	508	507	0	454	38	53	
8	0	0	0	0	510	507	0	450	39	54	
9	0	0	0	0	510	505	0	457	38	56	
10	0	0	0	0	509	507	0	466	38	57	
11	0	0	0	0	510	508	0	489	38	58	
12	0	0	0	0	507	506	0	499	38	58	
13	0	0	0	0	510	507	0	487	38	57	
14	0	0	0	0	508	508	0	475	38	55	
15	0	0	0	0	509	507	0	449	38	54	
0	0	0	0	0	508	507	0	431	39	54	
1	0	0	0	0	510	506	0	432	38	55	
2	0	0	0	0	509	505	0	432	38	57	
3	0	0	0	0	508	507	0	435	38	58	
4	0	0	0	0	508	508	0	439	38	58	
5	0	0	0	0	507	510	0	443	38	58	
6	0	0	0	0	504	510	0	460	38	56	
7	0	0	0	0	509	511	0	471	38	54	
8	0	0	0	0	509	511	0	494	39	54	
9	0	0	0	0	508	511	0	516	38	55	
10	0	0	0	0	509	511	0	508	38	56	
11	0	0	0	0	507	511	0	484	38	58	
12	0	0	0	0	508	510	0	471	38	58	
13	0	0	0	0	508	510	0	472	38	58	
14	0	0	0	0	508	510	0	465	38	57	
15	0	0	0	0	508	509	0	450	38	55	
0	0	0	0	0	510	509	0	444	39	53	
1	0	0	0	0	509	508	0	468	38	54	
2	0	0	0	0	509	507	0	503	38	56	
3	0	0	0	0	510	507	0	526	38	57	
4	0	0	0	0	510	508	0	540	38	58	
5	0	0	0	0	510	510	0	533	38	58	
6	0	0	0	0	508	510	0	497	38	57	
7	0	0	0	0	509	510	0	485	38	55	
8	0	0	0	0	508	511	0	489	39	54	
9	0	0	0	0	509	510	0	499	38	54	
10	0	0	0	0	511	510	0	496	38	55	
11	0	0	0	0	509	509	0	491	38	57	
12	0	0	0	0	511	509	0	503	38	58	
13	0	0	0	0	510	508	0	519	38	58	
14	0	0	0	0	507	507	0	526	38	58	
15	0	0	0	0	508	506	0	526	38	56	
0	0	0	0	0	506	505	0	519	39	54	
1	0	0	0	0	508	507	0	536	38	53	
2	0	0	0	0	509	506	0	551	38	55	
3	0	0	0	0	509	507	0	562	38	56	
4	0	0	0	0	506	507	0	550	38	58	
5	0	0	0	0	508	508	0	531	38	58	
6	0	0	0	0	511	507	0	516	38	58	
7	0	0	0	0	508	508	0	500	38	57	
8	0	0	0	0	508	506	0	486	39	55	
9	0	0	0	0	510	507	0	472	38	53	
10	0	0	0	0	510	508	0	454	38	54	
11	0	0	0	0	511	508	0	444	38	56	
12	0	0	0	0	510	507	0	445	38	57	
13	0	0	0	0	511	508	0	447	38	58	
14	0	0	0	0	511	508	0	449	38	58	
15	0	0	0	0	510	509	0	431	38	57	
0	0	0	0	0	509	510	0	441	39	55	
1	0	0	0	0	511	511	0	451	38	54	
2	0	0	0	0	508	510	0	463	38	54	
3	0	0	0	0	508	508	0	467	38	55	
4	0	0	0	0	506	508	0	456	38	57	
5	0	0	0	0	508	508	0	446	38	58	
6	0	0	0	0	509	509	0	449	38	58	
7	0	0	0	0	508	511	0	461	38	58	
8	0	0	0	0	508	511	0	457	39	56	
9	0	0	0	0	507	511	0	445	38	54	
10	0	0	0	0	508	510	0	460	38	53	
11	0	0	0	0	510	509	0	479	38	55	
12	0	0	0	0	510	509	0	497	38	56	
13	0	0	0	0	510	509	0	519	38	58	
14	0	0	0	0	510	508	0	525	38	58	
15	0	0	0	0	508	508	0	559	38	58	
0	0	0	0	0	506	507	0	577	39	57	
1	0	0	0	0	506	507	0	579	38	55	
2	0	0	0	0	508	509	0	577	38	53	
3	0	0	0	0	509	509	0	567	38	54	
4	0	0	0	0	511	508	0	566	38	56	
5	0	0	0	0	508	509	0	564	38	57	
6	0	0	0	0	507	508	0	557	38	58	
7	0	0	0	0	511	508	0	554	38	58	
8	0	0	0	0	510	508	0	548	39	57	
9	0	0	0	0	510	508	0	559	38	55	
10	0	0	0	0	510	508	0	568	38	54	
11	0	0	0	0	511	507	0	544	38	54	
12	0	0	0	0	510	506	0	524	38	55	
13	0	0	0	0	511	504	0	521	38	57	
14	0	0	0	0	511	505	0	528	38	58	
15	0	0	0	0	509	504	0	520	38	58	
0	0	0	0	0	509	505	0	505	39	58	
1	0	0	0	0	510	506	0	508	38	56	
2	0	0	0	0	507	508	0	523	38	54	
3	0	0	0	0	509	506	0	550	38	53	
4	0	0	0	0	508	505	0	560	38	55	
5	0	0	0	0	508	505	0	560	38	56	
6	0	0	0	0	509	506	0	583	38	58	
7	0	0	0	0	510	505	0	560	38	58	
8	0	0	0	0	509	504	0	551	39	58	
9	0	0	0	0	511	505	0	539	38	57	
10	0	0	0	0	511	507	0	533	38	55	
11	0	0	0	0	510	507	0	528	38	54	
12	0	0	0	0	509	505	0	510	38	54	
13	0	0	0	0	510	505	0	514	38	56	
14	0	0	0	0	510	506	0	540	38	57	
15	0	0	0	0	508	507	0	555	38	58	
0	0	0	0	0	509	507	0	557	39	58	
1	0	0	0	0	508	508	0	558	38	57	
2	0	0	0	0	507	509	0	561	38	55	
3	0	0	0	0	509	507	0	564	38	54	
4	0	0	0	0	508	506	0	558	38	54	
5	0	0	0	0	511	506	0	547	38	55	
6	0	0	0	0	509	507	0	516	38	57	
7	0	0	0	0	509	508	0	503	38	58	
8	0	0	0	0	508	508	0	503	39	58	
9	0	0	0	0	509	508	0	503	38	58	
10	0	0	0	0	510	507	0	500	38	56	
11	0	0	0	0	509	507	0	476	38	54	
12	0	0	0	0	508	505	0	474	38	53	
13	0	0	0	0	511	506	0	481	38	55	
14	0	0	0	0	509	507	0	481	38	56	
15	0	0	0	0	511	507	0	483	38	58	
0	0	0	0	0	509	507	0	473	39	58	
1	0	0	0	0	511	505	0	479	38	58	
2	0	0	0	0	511	505	0	471	38	57	
3	0	0	0	0	511	506	0	455	38	55	
4	0	0	0	0	509	506	0	447	38	54	
5	0	0	0	0	511	505	0	433	38	54	
6	0	0	0	0	507	506	0	455	38	56	
7	0	0	0	0	507	508	0	468	38	57	
8	0	0	0	0	508	508	0	471	39	58	
9	0	0	0	0	509	510	0	479	38	58	
10	0	0	0	0	510	510	0	474	38	57	
11	0	0	0	0	511	508	0	491	38	56	
12	0	0	0	0	508	510	0	501	38	54	
13	0	0	0	0	510	509	0	508	38	54	
14	0	0	0	0	511	507	0	512	38	55	
15	0	0	0	0	507	506	0	492	38	57	
0	0	0	0	0	510	506	0	483	39	58	
1	0	0	0	0	510	507	0	486	38	58	
2	0	0	0	0	509	508	0	494	38	58	
3	0	0	0	0	508	507	0	505	38	56	
4	0	0	0	0	508	508	0	499	38	54	
5	0	0	0	0	509	508	0	513	38	53	
6	0	0	0	0	510	508	0	516	38	55	
7	0	0	0	0	507	509	0	519	38	56	
8	0	0	0	0	509	510	0	524	39	58	
9	0	0	0	0	507	510	0	518	38	58	
10	0	0	0	0	510	508	0	519	38	58	
11	0	0	0	0	511	506	0	519	38	57	
12	0	0	0	0	509	508	0	512	38	55	
13	0	0	0	0	509	507	0	501	38	54	
14	0	0	0	0	508	507	0	488	38	54	
15	0	0	0	0	511	507	0	494	38	56	
0	0	0	0	0	508	506	0	493	39	57	
1	0	0	0	0	510	507	0	486	38	58	
2	0	0	0	0	508	507	0	470	38	58	
3	0	0	0	0	510	508	0	457	38	57	
4	0	0	0	0	508	509	0	482	38	56	
5	0	0	0	0	511	512	0	507	38	54	
6	0	0	0	0	508	510	0	528	38	54	
7	0	0	0	0	510	511	0	534	38	55	
8	0	0	0	0	510	512	0	529	39	57	
9	0	0	0	0	510	511	0	544	38	58	
10	0	0	0	0	507	511	0	555	38	58	
11	0	0	0	0	507	511	0	557	38	58	
12	0	0	0	0	510	509	0	556	38	56	
13	0	0	0	0	510	507	0	553	38	54	
14	0	0	0	0	509	507	0	563	38	54	
15	0	0	0	0	508	508	0	561	38	54	
0	0	0	0	0	508	508	0	549	39	56	
1	0	0	0	0	508	510	0	543	38	57	
2	0	0	0	0	508	510	0	530	38	58	
3	0	0	0	0	510	511	0	533	38	58	
4	0	0	0	0	511	511	0	539	38	57	
5	0	0	0	0	510	510	0	533	38	55	
6	0	0	0	0	509	510	0	524	38	54	
7	0	0	0	0	507	511	0	510	38	54	
8	0	0	0	0	509	510	0	515	39	56	
9	0	0	0	0	508	510	0	524	38	57	
10	0	0	0	0	509	510	0	525	38	58	
11	0	0	0	0	508	509	0	532	38	58	
12	0	0	0	0	509	508	0	527	38	58	
13	0	0	0	0	510	509	0	536	38	56	
14	0	0	0	0	510	510	0	557	38	54	
15	0	0	0	0	509	511	0	575	38	54	
0	0	0	0	0	508	511	0	581	39	55	
1	0	0	0	0	509	511	0	574	38	57	
2	0	0	0	0	509	510	0	568	38	58	
3	0	0	0	0	512	511	0	570	38	58	
4	0	0	0	0	509	511	0	585	38	58	
5	0	0	0	0	509	511	0	590	38	56	
6	0	0	0	0	507	511	0	580	38	54	
7	0	0	0	0	507	511	0	575	38	53	
8	0	0	0	0	509	510	0	557	39	54	
9	0	0	0	0	509	510	0	543	38	56	
10	0	0	0	0	511	509	0	532	38	57	
11	0	0	0	0	510	510	0	505	38	58	
12	0	0	0	0	512	510	0	488	38	58	
13	0	0	0	0	511	511	0	494	38	57	
14	0	0	0	0	511	511	0	492	38	55	
15	0	0	0	0	511	510	0	485	38	54	
0	0	0	0	0	510	510	0	480	39	54	
1	0	0	0	0	509	510	0	498	38	56	
2	0	0	0	0	508	510	0	518	38	57	
3	0	0	0	0	510	509	0	523	38	58	
4	0	0	0	0	508	510	0	519	38	58	
5	0	0	0	0	511	509	0	507	38	58	
6	0	0	0	0	509	508	0	511	38	56	
7	0	0	0	0	508	510	0	527	38	54	
8	0	0	0	0	508	510	0	544	39	54	
9	0	0	0	0	508	511	0	545	38	55	
10	0	0	0	0	508	509	0	528	38	57	
11	0	0	0	0	509	509	0	511	38	58	
12	0	0	0	0	507	508	0	503	38	58	
13	0	0	0	0	507	509	0	492	38	58	
14	0	0	0	0	509	508	0	487	38	56	
15	0	0	0	0	510	509	0	472	38	54	
0	0	0	0	0	508	508	0	482	39	53	
1	0	0	0	0	508	507	0	504	38	54	
2	0	0	0	0	510	508	0	502	38	56	
3	0	0	0	0	508	508	0	502	38	57	
4	0	0	0	0	509	505	0	481	38	58	
5	0	0	0	0	507	505	0	461	38	58	
6	0	0	0	0	510	505	0	448	38	57	
7	0	0	0	0	508	505	0	451	38	55	
8	0	0	0	0	510	505	0	471	39	54	
9	0	0	0	0	512	507	0	482	38	54	
10	0	0	0	0	509	507	0	504	38	56	
11	0	0	0	0	508	508	0	514	38	57	
12	0	0	0	0	508	507	0	515	38	58	
13	0	0	0	0	511	505	0	504	38	58	
14	0	0	0	0	510	507	0	498	38	58	
15	0	0	0	0	510	507	0	499	38	56	
0	0	0	0	0	512	507	0	504	39	54	
1	0	0	0	0	511	505	0	503	38	54	
2	0	0	0	0	508	506	0	491	38	55	
3	0	0	0	0	507	506	0	453	38	57	
4	0	0	0	0	509	506	0	434	38	58	
5	0	0	0	0	509	507	0	442	38	58	
6	0	0	0	0	508	508	0	456	38	58	
7	0	0	0	0	510	507	0	471	38	56	
8	0	0	0	0	507	507	0	478	39	54	
9	0	0	0	0	508	507	0	492	38	54	
10	0	0	0	0	508	506	0	492	38	54	
11	0	0	0	0	505	505	0	491	38	56	
12	0	0	0	0	508	507	0	483	38	57	
13	0	0	0	0	511	507	0	474	38	58	
14	0	0	0	0	510	506	0	462	38	58	
15	0	0	0	0	507	505	0	463	38	57	
0	0	0	0	0	507	506	0	470	39	55	
1	0	0	0	0	508	505	0	489	38	54	
2	0	0	0	0	509	504	0	497	38	54	
3	0	0	0	0	510	505	0	500	38	55	
4	0	0	0	0	511	506	0	489	38	57	
5	0	0	0	0	508	507	0	468	38	58	
6	0	0	0	0	510	505	0	466	38	58	
7	0	0	0	0	509	506	0	477	38	58	
8	0	0	0	0	508	505	0	501	39	56	
9	0	0	0	0	510	508	0	523	38	54	
10	0	0	0	0	512	508	0	552	38	54	
11	0	0	0	0	512	508	0	565	38	55	
12	0	0	0	0	510	509	0	544	38	57	
13	0	0	0	0	508	509	0	537	38	58	
14	0	0	0	0	510	510	0	544	38	58	
15	0	0	0	0	511	508	0	564	38	58	
0	0	0	0	0	510	508	0	569	39	56	
1	0	0	0	0	511	508	0	553	38	54	
2	0	0	0	0	508	509	0	551	38	53	
3	0	0	0	0	511	509	0	553	38	54	
4	0	0	0	0	509	508	0	559	38	56	
5	0	0	0	0	508	509	0	558	38	57	
6	0	0	0	0	509	510	0	538	38	58	
7	0	0	0	0	507	510	0	532	38	58	
8	0	0	0	0	508	509	0	529	39	57	
9	0	0	0	0	508	510	0	527	38	55	
10	0	0	0	0	509	508	0	519	38	54	
11	0	0	0	0	510	508	0	495	38	54	
12	0	0	0	0	508	508	0	471	38	55	
13	0	0	0	0	508	509	0	460	38	57	
14	0	0	0	0	510	509	0	472	38	58	
15	0	0	0	0	510	508	0	484	38	58	
0	0	0	0	0	509	508	0	476	39	58	
1	0	0	0	0	510	508	0	476	38	56	
2	0	0	0	0	511	510	0	487	38	54	
3	0	0	0	0	509	510	0	496	38	54	
4	0	0	0	0	510	509	0	494	38	55	
5	0	0	0	0	513	507	0	475	38	56	
6	0	0	0	0	508	508	0	465	38	58	
7	0	0	0	0	508	508	0	452	38	58	
8	0	0	0	0	510	508	0	456	39	58	
9	0	0	0	0	509	506	0	469	38	57	
10	0	0	0	0	508	506	0	470	38	55	
11	0	0	0	0	508	508	0	462	38	54	
12	0	0	0	0	507	507	0	471	38	54	
13	0	0	0	0	505	506	0	468	38	56	
14	0	0	0	0	510	508	0	472	38	57	
15	0	0	0	0	506	507	0	465	38	58	
0	0	0	0	0	509	506	0	477	39	58	
1	0	0	0	0	510	506	0	492	38	57	
2	0	0	0	0	509	507	0	495	38	55	
3	0	0	0	0	510	507	0	489	38	54	
4	0	0	0	0	509	506	0	452	38	54	
5	0	0	0	0	509	507	0	437	38	55	
6	0	0	0	0	512	508	0	442	38	57	
7	0	0	0	0	511	507	0	440	38	58	
8	0	0	0	0	510	507	0	415	39	59	
9	0	0	0	0	508	508	0	383	38	58	
10	0	0	0	0	508	508	0	376	38	56	
11	0	0	0	0	511	508	0	390	38	54	
12	0	0	0	0	509	507	0	421	38	54	
13	0	0	0	0	510	507	0	448	38	55	
14	0	0	0	0	509	508	0	463	38	56	
15	0	0	0	0	509	508	0	503	38	58	
0	0	0	0	0	509	507	0	531	39	58	
1	0	0	0	0	508	506	0	541	38	58	
2	0	0	0	0	508	507	0	550	38	57	
3	0	0	0	0	509	508	0	547	38	55	
4	0	0	0	0	508	508	0	544	38	54	
5	0	0	0	0	509	508	0	544	38	54	
6	0	0	0	0	511	510	0	543	38	56	
7	0	0	0	0	510	509	0	545	38	57	
8	0	0	0	0	509	510	0	526	39	58	
9	0	0	0	0	508	508	0	531	38	58	
10	0	0	0	0	510	509	0	547	38	57	
11	0	0	0	0	509	508	0	559	38	55	
12	0	0	0	0	509	508	0	560	38	54	
13	0	0	0	0	507	508	0	542	38	54	
14	0	0	0	0	509	508	0	538	38	55	
15	0	0	0	0	507	510	0	530	38	57	
0	0	0	0	0	508	510	0	516	39	58	
1	0	0	0	0	510	508	0	512	38	59	
2	0	0	0	0	507	507	0	503	38	58	
3	0	0	0	0	509	508	0	516	38	56	
4	0	0	0	0	510	508	0	541	38	54	
5	0	0	0	0	510	508	0	577	38	54	
6	0	0	0	0	508	508	0	572	38	55	
7	0	0	0	0	509	507	0	559	38	56	
8	0	0	0	0	509	507	0	558	39	58	
9	0	0	0	0	509	507	0	564	38	58	
10	0	0	0	0	509	507	0	567	38	58	
11	0	0	0	0	508	507	0	564	38	57	
12	0	0	0	0	509	506	0	555	38	55	
13	0	0	0	0	508	505	0	553	38	54	
14	0	0	0	0	508	506	0	551	38	54	
15	0	0	0	0	508	508	0	559	38	56	
0	0	0	0	0	509	509	0	568	39	57	
1	0	0	0	0	508	510	0	557	38	58	
2	0	0	0	0	510	511	0	556	38	58	
3	0	0	0	0	511	510	0	569	38	57	
4	0	0	0	0	512	507	0	583	38	55	
5	0	0	0	0	508	507	0	590	38	54	
6	0	0	0	0	510	509	0	588	38	54	
7	0	0	0	0	510	511	0	591	38	55	
8	0	0	0	0	508	510	0	587	39	57	
9	0	0	0	0	509	507	0	577	38	58	
10	0	0	0	0	507	507	0	563	38	59	
11	0	0	0	0	510	508	0	544	38	58	
12	0	0	0	0	509	508	0	543	38	56	
13	0	0	0	0	506	508	0	544	38	54	
14	0	0	0	0	509	508	0	544	38	54	
15	0	0	0	0	510	507	0	552	38	55	
0	0	0	0	0	510	507	0	559	39	56	
1	0	0	0	0	510	508	0	574	38	58	
2	0	0	0	0	511	508	0	581	38	58	
3	0	0	0	0	511	506	0	578	38	58	
4	0	0	0	0	510	505	0	565	38	57	
5	0	0	0	0	510	506	0	547	38	55	
6	0	0	0	0	509	505	0	550	38	54	
7	0	0	0	0	510	505	0	553	38	54	
8	0	0	0	0	509	506	0	543	39	56	
9	0	0	0	0	510	504	0	539	38	57	
10	0	0	0	0	508	504	0	532	38	58	
11	0	0	0	0	511	504	0	534	38	58	
12	0	0	0	0	509	505	0	526	38	57	
13	0	0	0	0	509	507	0	502	38	55	
14	0	0	0	0	508	507	0	480	38	54	
15	0	0	0	0	509	507	0	470	38	54	
0	0	0	0	0	508	507	0	479	39	55	
1	0	0	0	0	509	507	0	489	38	57	
2	0	0	0	0	508	507	0	493	38	58	
3	0	0	0	0	507	507	0	504	38	59	
4	0	0	0	0	509	505	0	502	38	58	
5	0	0	0	0	508	505	0	498	38	56	
6	0	0	0	0	511	505	0	510	38	54	
7	0	0	0	0	510	508	0	529	38	54	
8	0	0	0	0	509	506	0	553	39	55	
9	0	0	0	0	510	506	0	560	38	56	
10	0	0	0	0	510	507	0	570	38	58	
11	0	0	0	0	509	508	0	580	38	58	
12	0	0	0	0	510	507	0	578	38	58	
13	0	0	0	0	510	507	0	566	38	57	
14	0	0	0	0	508	510	0	548	38	55	
15	0	0	0	0	511	510	0	553	38	54	
0	0	0	0	0	510	509	0	560	39	54	
1	0	0	0	0	510	506	0	540	38	56	
2	0	0	0	0	510	507	0	511	38	57	
3	0	0	0	0	509	510	0	495	38	58	
4	0	0	0	0	509	509	0	506	38	58	
5	0	0	0	0	510	508	0	529	38	57	
6	0	0	0	0	508	509	0	542	38	55	
7	0	0	0	0	508	507	0	556	38	54	
8	0	0	0	0	506	506	0	571	39	54	
9	0	0	0	0	510	508	0	576	38	55	
10	0	0	0	0	508	507	0	581	38	57	
11	0	0	0	0	509	508	0	592	38	58	
12	0	0	0	0	508	506	0	591	38	59	
13	0	0	0	0	510	506	0	568	38	58	
14	0	0	0	0	507	506	0	558	38	56	
15	0	0	0	0	508	506	0	550	38	54	
0	0	0	0	0	511	505	0	545	39	54	
1	0	0	0	0	509	504	0	531	38	55	
2	0	0	0	0	508	505	0	492	38	56	
3	0	0	0	0	510	507	0	469	38	58	
4	0	0	0	0	511	507	0	470	38	58	
5	0	0	0	0	511	505	0	471	38	58	
6	0	0	0	0	509	509	0	474	38	57	
7	0	0	0	0	508	508	0	473	38	55	
8	0	0	0	0	511	508	0	482	39	54	
9	0	0	0	0	510	507	0	483	38	54	
10	0	0	0	0	507	507	0	459	38	56	
11	0	0	0	0	511	507	0	436	38	57	
12	0	0	0	0	510	506	0	407	38	58	
13	0	0	0	0	509	506	0	406	38	58	
14	0	0	0	0	508	506	0	435	38	57	
15	0	0	0	0	510	505	0	458	38	55	
0	0	0	0	0	510	505	0	467	39	54	
1	0	0	0	0	507	505	0	471	38	54	
2	0	0	0	0	511	505	0	475	38	55	
3	0	0	0	0	509	504	0	489	38	57	
4	0	0	0	0	509	505	0	507	38	58	
5	0	0	0	0	509	505	0	521	38	58	
6	0	0	0	0	509	507	0	523	38	58	
7	0	0	0	0	508	506	0	528	38	56	
8	0	0	0	0	511	506	0	534	39	54	
9	0	0	0	0	508	506	0	525	38	54	
10	0	0	0	0	509	508	0	516	38	55	
11	0	0	0	0	510	508	0	484	38	56	
12	0	0	0	0	509	509	0	467	38	58	
13	0	0	0	0	508	509	0	449	38	58	
14	0	0	0	0	508	509	0	423	38	58	
15	0	0	0	0	508	508	0	407	38	57	
0	0	0	0	0	507	509	0	391	39	55	
1	0	0	0	0	509	509	0	404	38	54	
2	0	0	0	0	509	507	0	437	38	54	
3	0	0	0	0	510	508	0	474	38	56	
4	0	0	0	0	508	507	0	495	38	57	
5	0	0	0	0	508	508	0	494	38	58	
6	0	0	0	0	510	509	0	507	38	58	
7	0	0	0	0	511	510	0	515	38	57	
8	0	0	0	0	508	509	0	521	39	55	
9	0	0	0	0	509	510	0	516	38	54	
10	0	0	0	0	509	510	0	501	38	54	
11	0	0	0	0	509	512	0	502	38	55	
12	0	0	0	0	508	512	0	502	38	57	
13	0	0	0	0	508	511	0	503	38	58	
14	0	0	0	0	507	509	0	486	38	58	
15	0	0	0	0	510	508	0	459	38	58	
0	0	0	0	0	508	509	0	450	39	56	
1	0	0	0	0	509	508	0	446	38	54	
2	0	0	0	0	510	508	0	450	38	54	
3	0	0	0	0	509	510	0	461	38	55	
4	0	0	0	0	508	509	0	448	38	56	
5	0	0	0	0	508	509	0	452	38	58	
6	0	0	0	0	509	508	0	470	38	58	
7	0	0	0	0	509	507	0	494	38	58	
8	0	0	0	0	510	508	0	511	39	57	
9	0	0	0	0	510	506	0	504	38	55	
10	0	0	0	0	509	508	0	503	38	54	
11	0	0	0	0	509	507	0	508	38	54	
12	0	0	0	0	510	507	0	507	38	56	
13	0	0	0	0	509	508	0	515	38	57	
14	0	0	0	0	509	508	0	516	38	58	
15	0	0	0	0	509	507	0	519	38	58	
0	0	0	0	0	508	507	0	524	39	57	
1	0	0	0	0	508	507	0	536	38	56	
2	0	0	0	0	511	508	0	550	38	54	
3	0	0	0	0	508	509	0	549	38	54	
4	0	0	0	0	509	508	0	548	38	55	
5	0	0	0	0	509	507	0	535	38	57	
6	0	0	0	0	509	505	0	510	38	58	
7	0	0	0	0	510	507	0	495	38	58	
8	0	0	0	0	508	508	0	486	39	58	
9	0	0	0	0	508	508	0	500	38	56	
10	0	0	0	0	509	507	0	519	38	54	
11	0	0	0	0	510	507	0	522	38	53	
12	0	0	0	0	511	508	0	519	38	55	
13	0	0	0	0	510	509	0	511	38	56	
14	0	0	0	0	508	508	0	510	38	58	
15	0	0	0	0	510	508	0	507	38	58	
0	0	0	0	0	510	509	0	510	39	58	
1	0	0	0	0	509	508	0	523	38	57	
2	0	0	0	0	510	508	0	522	38	55	
3	0	0	0	0	510	509	0	543	38	54	
4	0	0	0	0	511	508	0	540	38	54	
5	0	0	0	0	507	509	0	545	38	56	
6	0	0	0	0	509	507	0	546	38	57	
7	0	0	0	0	510	507	0	530	38	58	
8	0	0	0	0	511	507	0	518	39	58	
9	0	0	0	0	510	507	0	517	38	57	
10	0	0	0	0	509	508	0	524	38	56	
11	0	0	0	0	509	507	0	523	38	54	
12	0	0	0	0	510	505	0	508	38	54	
13	0	0	0	0	508	506	0	503	38	55	
14	0	0	0	0	507	505	0	495	38	57	
15	0	0	0	0	508	507	0	463	38	58	
0	0	0	0	0	507	506	0	411	39	58	
1	0	0	0	0	508	508	0	371	38	58	
2	0	0	0	0	510	509	0	379	38	56	
3	0	0	0	0	510	508	0	395	38	54	
4	0	0	0	0	511	508	0	412	38	53	
5	0	0	0	0	508	507	0	426	38	54	
6	0	0	0	0	508	507	0	420	38	56	
7	0	0	0	0	509	508	0	436	38	58	
8	0	0	0	0	510	509	0	447	39	58	
9	0	0	0	0	507	509	0	466	38	58	
10	0	0	0	0	509	508	0	491	38	57	
11	0	0	0	0	511	507	0	500	38	55	
12	0	0	0	0	509	506	0	519	38	54	
13	0	0	0	0	508	507	0	535	38	54	
14	0	0	0	0	509	507	0	549	38	56	
15	0	0	0	0	507	507	0	550	38	57	
0	0	0	0	0	506	507	0	539	39	58	
1	0	0	0	0	507	507	0	543	38	58	
2	0	0	0	0	509	508	0	528	38	58	
3	0	0	0	0	508	508	0	526	38	56	
4	0	0	0	0	508	508	0	525	38	54	
5	0	0	0	0	509	509	0	509	38	54	
6	0	0	0	0	510	508	0	509	38	55	
7	0	0	0	0	510	508	0	478	38	57	
8	0	0	0	0	511	508	0	472	39	58	
9	0	0	0	0	509	508	0	459	38	58	
10	0	0	0	0	510	507	0	448	38	58	
11	0	0	0	0	508	507	0	457	38	56	
12	0	0	0	0	511	506	0	455	38	54	
13	0	0	0	0	510	508	0	456	38	53	
14	0	0	0	0	511	509	0	462	38	54	
15	0	0	0	0	511	510	0	454	38	56	
0	0	0	0	0	512	509	0	463	39	57	
1	0	0	0	0	511	510	0	469	38	58	
2	0	0	0	0	507	510	0	477	38	58	
3	0	0	0	0	510	510	0	499	38	57	
4	0	0	0	0	510	511	0	502	38	55	
5	0	0	0	0	511	512	0	504	38	54	
6	0	0	0	0	508	511	0	496	38	54	
7	0	0	0	0	509	509	0	494	38	56	
8	0	0	0	0	510	510	0	500	39	57	
9	0	0	0	0	511	510	0	504	38	58	
10	0	0	0	0	508	509	0	518	38	58	
11	0	0	0	0	510	511	0	524	38	58	
12	0	0	0	0	509	512	0	526	38	56	
13	0	0	0	0	510	510	0	541	38	54	
14	0	0	0	0	507	511	0	533	38	54	
15	0	0	0	0	509	511	0	531	38	55	
0	0	0	0	0	509	511	0	513	39	57	
1	0	0	0	0	510	510	0	503	38	58	
2	0	0	0	0	510	507	0	507	38	58	
3	0	0	0	0	510	508	0	515	38	58	
4	0	0	0	0	510	507	0	531	38	56	
5	0	0	0	0	510	507	0	547	38	54	
6	0	0	0	0	509	508	0	563	38	54	
7	0	0	0	0	508	508	0	569	38	54	
8	0	0	0	0	509	507	0	550	39	56	
9	0	0	0	0	510	507	0	540	38	57	
10	0	0	0	0	511	507	0	539	38	58	
11	0	0	0	0	509	506	0	521	38	58	
12	0	0	0	0	509	506	0	519	38	57	
13	0	0	0	0	508	507	0	527	38	55	
14	0	0	0	0	508	507	0	556	38	54	
15	0	0	0	0	510	506	0	551	38	54	
0	0	0	0	0	509	505	0	535	39	56	
1	0	0	0	0	507	504	0	517	38	57	
2	0	0	0	0	511	504	0	505	38	58	
3	0	0	0	0	509	505	0	518	38	58	
4	0	0	0	0	508	505	0	532	38	58	
5	0	0	0	0	509	506	0	532	38	56	
6	0	0	0	0	510	508	0	541	38	54	
7	0	0	0	0	508	508	0	543	38	54	
8	0	0	0	0	509	508	0	569	39	55	
9	0	0	0	0	511	508	0	592	38	57	
10	0	0	0	0	509	507	0	587	38	58	
11	0	0	0	0	510	507	0	563	38	58	
12	0	0	0	0	509	508	0	526	38	58	
13	0	0	0	0	509	508	0	508	38	56	
14	0	0	0	0	508	507	0	506	38	54	
15	0	0	0	0	508	506	0	502	38	54	
0	0	0	0	0	510	507	0	506	39	54	
1	0	0	0	0	511	506	0	515	38	56	
2	0	0	0	0	511	507	0	545	38	57	
3	0	0	0	0	509	508	0	573	38	58	
4	0	0	0	0	511	508	0	593	38	58	
5	0	0	0	0	509	506	0	608	38	57	
6	0	0	0	0	508	508	0	609	38	55	
7	0	0	0	0	507	507	0	600	38	54	
8	0	0	0	0	508	506	0	579	39	54	
9	0	0	0	0	507	505	0	537	38	56	
10	0	0	0	0	508	506	0	502	38	57	
11	0	0	0	0	510	507	0	470	38	58	
12	0	0	0	0	509	508	0	472	38	59	
13	0	0	0	0	510	507	0	486	38	58	
14	0	0	0	0	510	505	0	498	38	56	
15	0	0	0	0	509	506	0	504	38	54	
0	0	0	0	0	510	506	0	491	39	54	
1	0	0	0	0	508	506	0	484	38	55	
2	0	0	0	0	509	507	0	479	38	57	
3	0	0	0	0	509	509	0	470	38	58	
4	0	0	0	0	509	508	0	464	38	58	
5	0	0	0	0	509	509	0	444	38	58	
6	0	0	0	0	509	507	0	444	38	56	
7	0	0	0	0	509	508	0	440	38	54	
8	0	0	0	0	510	510	0	451	39	54	
9	0	0	0	0	511	508	0	468	38	54	
10	0	0	0	0	510	508	0	470	38	56	
11	0	0	0	0	509	507	0	466	38	57	
12	0	0	0	0	509	508	0	464	38	58	
13	0	0	0	0	511	508	0	472	38	58	
14	0	0	0	0	508	508	0	482	38	57	
15	0	0	0	0	510	508	0	480	38	55	
0	0	0	0	0	509	508	0	473	39	54	
1	0	0	0	0	510	508	0	454	38	54	
2	0	0	0	0	508	507	0	444	38	56	
3	0	0	0	0	508	507	0	430	38	57	
4	0	0	0	0	508	509	0	405	38	58	
5	0	0	0	0	509	509	0	376	38	58	
6	0	0	0	0	508	509	0	362	38	58	
7	0	0	0	0	509	510	0	380	38	56	
8	0	0	0	0	508	509	0	400	39	54	
9	0	0	0	0	509	510	0	410	38	54	
10	0	0	0	0	510	510	0	430	38	55	
11	0	0	0	0	509	510	0	453	38	57	
12	0	0	0	0	510	509	0	468	38	58	
13	0	0	0	0	508	508	0	469	38	58	
14	0	0	0	0	509	506	0	463	38	58	
15	0	0	0	0	509	505	0	467	38	57	
0	0	0	0	0	509	507	0	486	39	55	
1	0	0	0	0	508	508	0	503	38	54	
2	0	0	0	0	511	509	0	510	38	54	
3	0	0	0	0	511	511	0	502	38	56	
4	0	0	0	0	510	509	0	503	38	57	
5	0	0	0	0	510	508	0	509	38	58	
6	0	0	0	0	510	509	0	511	38	58	
7	0	0	0	0	511	510	0	520	38	57	
8	0	0	0	0	509	510	0	521	39	55	
9	0	0	0	0	510	510	0	527	38	54	
10	0	0	0	0	508	509	0	544	38	54	
11	0	0	0	0	507	508	0	548	38	55	
12	0	0	0	0	509	508	0	546	38	57	
13	0	0	0	0	509	509	0	524	38	58	
14	0	0	0	0	508	508	0	522	38	59	
15	0	0	0	0	509	508	0	527	38	58	
0	0	0	0	0	507	507	0	525	39	56	
1	0	0	0	0	508	508	0	522	38	54	
2	0	0	0	0	507	508	0	514	38	54	
3	0	0	0	0	508	508	0	518	38	55	
4	0	0	0	0	511	508	0	526	38	57	
5	0	0	0	0	509	508	0	525	38	58	
6	0	0	0	0	510	509	0	523	38	58	
7	0	0	0	0	508	510	0	524	38	58	
8	0	0	0	0	508	510	0	535	39	57	
9	0	0	0	0	509	511	0	537	38	55	
10	0	0	0	0	510	511	0	530	38	54	
11	0	0	0	0	510	512	0	529	38	54	
12	0	0	0	0	510	512	0	530	38	56	
13	0	0	0	0	510	510	0	537	38	57	
14	0	0	0	0	511	510	0	543	38	58	
15	0	0	0	0	510	510	0	545	38	58	
0	0	0	0	0	509	509	0	540	39	57	
1	0	0	0	0	510	508	0	519	38	55	
2	0	0	0	0	509	508	0	512	38	54	
3	0	0	0	0	508	506	0	503	38	54	
4	0	0	0	0	508	507	0	493	38	55	
5	0	0	0	0	508	507	0	479	38	57	
6	0	0	0	0	510	507	0	464	38	58	
7	0	0	0	0	508	508	0	460	38	59	
8	0	0	0	0	510	508	0	461	39	58	
9	0	0	0	0	507	507	0	462	38	56	
10	0	0	0	0	508	508	0	473	38	54	
11	0	0	0	0	510	508	0	474	38	54	
12	0	0	0	0	510	508	0	476	38	55	
13	0	0	0	0	509	510	0	472	38	56	
14	0	0	0	0	509	511	0	486	38	58	
15	0	0	0	0	509	511	0	477	38	58	
0	0	0	0	0	511	509	0	470	39	58	
1	0	0	0	0	509	509	0	487	38	57	
2	0	0	0	0	509	509	0	501	38	55	
3	0	0	0	0	509	508	0	496	38	54	
4	0	0	0	0	510	507	0	479	38	54	
5	0	0	0	0	510	506	0	470	38	56	
6	0	0	0	0	511	507	0	483	38	57	
7	0	0	0	0	510	507	0	490	38	58	
8	0	0	0	0	510	508	0	489	39	58	
9	0	0	0	0	509	506	0	497	38	57	
10	0	0	0	0	508	507	0	488	38	55	
11	0	0	0	0	509	507	0	497	38	54	
12	0	0	0	0	509	507	0	531	38	54	
13	0	0	0	0	510	507	0	548	38	55	
14	0	0	0	0	507	507	0	553	38	57	
15	0	0	0	0	510	507	0	538	38	58	
0	0	0	0	0	509	506	0	513	39	59	
1	0	0	0	0	508	508	0	489	38	58	
2	0	0	0	0	508	507	0	476	38	56	
3	0	0	0	0	508	506	0	431	38	54	
4	0	0	0	0	506	506	0	392	38	54	
5	0	0	0	0	506	507	0	375	38	55	
6	0	0	0	0	508	509	0	399	38	56	
7	0	0	0	0	509	507	0	437	38	58	
8	0	0	0	0	508	506	0	471	39	58	
9	0	0	0	0	509	505	0	492	38	58	
10	0	0	0	0	510	505	0	500	38	57	
11	0	0	0	0	510	506	0	493	38	55	
12	0	0	0	0	510	506	0	475	38	54	
13	0	0	0	0	507	506	0	458	38	54	
14	0	0	0	0	509	506	0	457	38	56	
15	0	0	0	0	509	506	0	469	38	57	
0	0	0	0	0	509	506	0	482	39	58	
1	0	0	0	0	508	508	0	486	38	58	
2	0	0	0	0	510	508	0	487	38	57	
3	0	0	0	0	511	508	0	475	38	55	
4	0	0	0	0	510	509	0	483	38	54	
5	0	0	0	0	509	510	0	507	38	54	
6	0	0	0	0	510	510	0	510	38	55	
7	0	0	0	0	511	510	0	517	38	57	
8	0	0	0	0	511	508	0	503	39	58	
9	0	0	0	0	509	507	0	512	38	59	
10	0	0	0	0	512	507	0	522	38	58	
11	0	0	0	0	511	507	0	529	38	56	
12	0	0	0	0	508	506	0	545	38	54	
13	0	0	0	0	508	506	0	547	38	54	
14	0	0	0	0	508	506	0	560	38	55	
15	0	0	0	0	509	506	0	568	38	56	
0	0	0	0	0	508	507	0	559	39	58	
1	0	0	0	0	508	507	0	557	38	59	
2	0	0	0	0	506	508	0	536	38	58	
3	0	0	0	0	509	506	0	524	38	57	
4	0	0	0	0	508	507	0	530	38	55	
5	0	0	0	0	510	507	0	532	38	54	
6	0	0	0	0	510	505	0	529	38	54	
7	0	0	0	0	510	506	0	520	38	56	
8	0	0	0	0	510	507	0	517	39	57	
9	0	0	0	0	509	507	0	505	38	58	
10	0	0	0	0	509	508	0	499	38	58	
11	0	0	0	0	507	508	0	492	38	57	
12	0	0	0	0	507	509	0	471	38	55	
13	0	0	0	0	508	507	0	453	38	54	
14	0	0	0	0	508	506	0	448	38	54	
15	0	0	0	0	508	506	0	445	38	55	
0	0	0	0	0	508	508	0	457	39	57	
1	0	0	0	0	508	506	0	450	38	58	
2	0	0	0	0	509	506	0	464	38	59	
3	0	0	0	0	510	508	0	499	38	58	
4	0	0	0	0	511	508	0	530	38	56	
5	0	0	0	0	511	508	0	553	38	54	
6	0	0	0	0	512	507	0	544	38	54	
7	0	0	0	0	511	506	0	555	38	55	
8	0	0	0	0	511	507	0	570	39	56	
9	0	0	0	0	509	508	0	579	38	58	
10	0	0	0	0	508	508	0	582	38	59	
11	0	0	0	0	510	510	0	570	38	58	
12	0	0	0	0	510	511	0	564	38	57	
13	0	0	0	0	509	510	0	547	38	55	
14	0	0	0	0	507	509	0	515	38	54	
15	0	0	0	0	512	508	0	494	38	54	
0	0	0	0	0	506	508	0	473	39	56	
1	0	0	0	0	508	507	0	486	38	57	
2	0	0	0	0	508	505	0	504	38	58	
3	0	0	0	0	510	505	0	523	38	59	
4	0	0	0	0	509	504	0	532	38	58	
5	0	0	0	0	508	506	0	524	38	56	
6	0	0	0	0	508	508	0	529	38	54	
7	0	0	0	0	510	508	0	533	38	54	
8	0	0	0	0	508	506	0	535	39	55	
9	0	0	0	0	510	507	0	545	38	57	
10	0	0	0	0	510	507	0	546	38	58	
11	0	0	0	0	508	508	0	543	38	59	
12	0	0	0	0	509	510	0	535	38	58	
13	0	0	0	0	508	512	0	532	38	56	
14	0	0	0	0	510	511	0	526	38	54	
15	0	0	0	0	509	510	0	504	38	54	
0	0	0	0	0	510	509	0	497	39	55	
1	0	0	0	0	510	511	0	495	38	56	
2	0	0	0	0	507	509	0	500	38	58	
3	0	0	0	0	509	508	0	510	38	59	
4	0	0	0	0	509	506	0	507	38	58	
5	0	0	0	0	510	507	0	504	38	57	
6	0	0	0	0	511	506	0	503	38	55	
7	0	0	0	0	507	505	0	509	38	54	
8	0	0	0	0	508	507	0	521	39	54	
9	0	0	0	0	510	506	0	527	38	56	
10	0	0	0	0	509	507	0	534	38	57	
11	0	0	0	0	510	506	0	520	38	58	
12	0	0	0	0	510	507	0	532	38	59	
13	0	0	0	0	506	508	0	523	38	58	
14	0	0	0	0	508	509	0	493	38	56	
15	0	0	0	0	509	510	0	480	38	54	
0	0	0	0	0	509	511	0	485	39	54	
1	0	0	0	0	510	514	0	513	38	55	
2	0	0	0	0	510	513	0	522	38	57	
3	0	0	0	0	509	512	0	512	38	58	
4	0	0	0	0	510	510	0	495	38	59	
5	0	0	0	0	507	512	0	501	38	58	
6	0	0	0	0	510	511	0	514	38	56	
7	0	0	0	0	510	510	0	513	38	54	
8	0	0	0	0	509	509	0	508	39	54	
9	0	0	0	0	510	508	0	521	38	55	
10	0	0	0	0	509	509	0	538	38	56	
11	0	0	0	0	509	508	0	527	38	58	
12	0	0	0	0	508	508	0	524	38	59	
13	0	0	0	0	508	508	0	514	38	58	
14	0	0	0	0	510	507	0	516	38	57	
15	0	0	0	0	511	507	0	525	38	55	
0	0	0	0	0	510	508	0	526	39	54	
1	0	0	0	0	510	506	0	532	38	54	
2	0	0	0	0	510	507	0	522	38	56	
3	0	0	0	0	511	507	0	523	38	57	
4	0	0	0	0	510	505	0	545	38	58	
5	0	0	0	0	509	504	0	542	38	59	
6	0	0	0	0	508	505	0	545	38	58	
7	0	0	0	0	510	504	0	525	38	56	
8	0	0	0	0	511	506	0	530	39	54	
9	0	0	0	0	511	505	0	540	38	54	
10	0	0	0	0	508	505	0	547	38	55	
11	0	0	0	0	509	505	0	560	38	57	
12	0	0	0	0	508	505	0	545	38	58	
13	0	0	0	0	509	506	0	555	38	59	
14	0	0	0	0	511	506	0	570	38	58	
15	0	0	0	0	510	506	0	580	38	56	
0	0	0	0	0	509	505	0	589	39	54	
1	0	0	0	0	510	505	0	579	38	54	
2	0	0	0	0	508	506	0	578	38	55	
3	0	0	0	0	511	507	0	579	38	56	
4	0	0	0	0	508	507	0	577	38	58	
5	0	0	0	0	508	507	0	572	38	59	
6	0	0	0	0	510	507	0	547	38	58	
7	0	0	0	0	510	506	0	546	38	57	
8	0	0	0	0	509	506	0	546	39	55	
9	0	0	0	0	509	506	0	520	38	54	
10	0	0	0	0	510	505	0	500	38	54	
11	0	0	0	0	508	504	0	485	38	56	
12	0	0	0	0	508	505	0	489	38	57	
13	0	0	0	0	508	506	0	488	38	58	
14	0	0	0	0	507	507	0	475	38	59	
15	0	0	0	0	509	507	0	483	38	58	
0	0	0	0	0	509	506	0	493	39	56	
1	0	0	0	0	509	505	0	525	38	54	
2	0	0	0	0	509	505	0	556	38	54	
3	0	0	0	0	508	506	0	562	38	55	
4	0	0	0	0	510	506	0	551	38	57	
5	0	0	0	0	509	505	0	529	38	58	
6	0	0	0	0	508	505	0	541	38	59	
7	0	0	0	0	509	506	0	544	38	58	
8	0	0	0	0	510	505	0	552	39	56	
9	0	0	0	0	510	507	0	542	38	54	
10	0	0	0	0	511	509	0	511	38	54	
11	0	0	0	0	509	508	0	497	38	55	
12	0	0	0	0	511	508	0	483	38	56	
13	0	0	0	0	507	509	0	465	38	58	
14	0	0	0	0	510	509	0	459	38	59	
15	0	0	0	0	507	509	0	451	38	58	
0	0	0	0	0	509	510	0	468	39	57	
1	0	0	0	0	510	511	0	489	38	55	
2	0	0	0	0	508	512	0	485	38	54	
3	0	0	0	0	510	510	0	494	38	54	
4	0	0	0	0	511	509	0	500	38	56	
5	0	0	0	0	508	508	0	519	38	57	
6	0	0	0	0	510	510	0	540	38	58	
7	0	0	0	0	509	509	0	553	38	59	
8	0	0	0	0	510	509	0	540	39	58	
9	0	0	0	0	511	508	0	519	38	56	
10	0	0	0	0	509	506	0	518	38	54	
11	0	0	0	0	509	507	0	515	38	54	
12	0	0	0	0	507	507	0	515	38	55	
13	0	0	0	0	506	507	0	519	38	57	
14	0	0	0	0	510	508	0	518	38	58	
15	0	0	0	0	507	508	0	517	38	59	
0	0	0	0	0	510	510	0	489	39	58	
1	0	0	0	0	511	510	0	478	38	56	
2	0	0	0	0	505	509	0	478	38	54	
3	0	0	0	0	506	508	0	479	38	54	
4	0	0	0	0	509	508	0	480	38	55	
5	0	0	0	0	510	507	0	467	38	56	
6	0	0	0	0	508	509	0	468	38	58	
7	0	0	0	0	510	509	0	472	38	59	
8	0	0	0	0	510	510	0	465	39	58	
9	0	0	0	0	511	510	0	455	38	57	
10	0	0	0	0	510	510	0	464	38	55	
11	0	0	0	0	510	510	0	487	38	54	
12	0	0	0	0	512	509	0	499	38	54	
13	0	0	0	0	509	509	0	504	38	56	
14	0	0	0	0	510	509	0	523	38	57	
15	0	0	0	0	511	509	0	542	38	58	
0	0	0	0	0	509	508	0	552	39	59	
1	0	0	0	0	510	507	0	552	38	58	
2	0	0	0	0	508	507	0	542	38	56	
3	0	0	0	0	509	508	0	547	38	54	
4	0	0	0	0	509	508	0	555	38	54	
5	0	0	0	0	509	508	0	558	38	55	
6	0	0	0	0	510	507	0	542	38	57	
7	0	0	0	0	508	509	0	510	38	58	
8	0	0	0	0	508	508	0	485	39	59	
9	0	0	0	0	511	507	0	482	38	58	
10	0	0	0	0	508	507	0	491	38	57	
11	0	0	0	0	511	509	0	508	38	54	
12	0	0	0	0	511	508	0	515	38	54	
13	0	0	0	0	510	509	0	533	38	55	
14	0	0	0	0	510	511	0	548	38	56	
15	0	0	0	0	508	510	0	558	38	58	
0	0	0	0	0	509	509	0	560	39	58	
1	0	0	0	0	507	509	0	535	38	58	
2	0	0	0	0	508	509	0	523	38	57	
3	0	0	0	0	510	508	0	523	38	55	
4	0	0	0	0	510	509	0	537	38	54	
5	0	0	0	0	511	508	0	548	38	54	
6	0	0	0	0	510	507	0	534	38	56	
7	0	0	0	0	509	508	0	536	38	57	
8	0	0	0	0	508	508	0	537	39	58	
9	0	0	0	0	508	508	0	527	38	59	
10	0	0	0	0	510	508	0	502	38	58	
11	0	0	0	0	510	507	0	473	38	56	
12	0	0	0	0	510	505	0	449	38	54	
13	0	0	0	0	510	506	0	433	38	54	
14	0	0	0	0	508	506	0	435	38	55	
15	0	0	0	0	508	507	0	436	38	57	
0	0	0	0	0	506	506	0	428	39	58	
1	0	0	0	0	508	507	0	444	38	59	
2	0	0	0	0	510	508	0	469	38	58	
3	0	0	0	0	508	509	0	492	38	57	
4	0	0	0	0	510	507	0	504	38	55	
5	0	0	0	0	510	505	0	510	38	54	
6	0	0	0	0	509	507	0	531	38	55	
7	0	0	0	0	508	507	0	560	38	56	
8	0	0	0	0	508	507	0	576	39	58	
9	0	0	0	0	510	505	0	569	38	58	
10	0	0	0	0	508	504	0	556	38	58	
11	0	0	0	0	509	507	0	563	38	57	
12	0	0	0	0	509	508	0	566	38	55	
13	0	0	0	0	507	508	0	542	38	54	
14	0	0	0	0	510	507	0	529	38	54	
15	0	0	0	0	508	507	0	514	38	56	
0	0	0	0	0	509	507	0	500	39	57	
1	0	0	0	0	511	508	0	501	38	58	
2	0	0	0	0	508	506	0	487	38	59	
3	0	0	0	0	510	507	0	484	38	58	
4	0	0	0	0	511	508	0	473	38	56	
5	0	0	0	0	509	507	0	471	38	54	
6	0	0	0	0	510	508	0	485	38	54	
7	0	0	0	0	510	506	0	489	38	55	
8	0	0	0	0	511	507	0	488	39	57	
9	0	0	0	0	508	506	0	480	38	58	
10	0	0	0	0	509	505	0	473	38	59	
11	0	0	0	0	511	505	0	478	38	58	
12	0	0	0	0	508	507	0	487	38	57	
13	0	0	0	0	507	508	0	493	38	55	
14	0	0	0	0	509	507	0	488	38	54	
15	0	0	0	0	509	508	0	501	38	55	
0	0	0	0	0	508	508	0	504	39	56	
1	0	0	0	0	509	508	0	510	38	58	
2	0	0	0	0	510	508	0	509	38	58	
3	0	0	0	0	508	507	0	502	38	58	
4	0	0	0	0	508	507	0	507	38	57	
5	0	0	0	0	508	506	0	516	38	55	
6	0	0	0	0	511	505	0	523	38	54	
7	0	0	0	0	510	507	0	529	38	54	
8	0	0	0	0	511	509	0	518	39	56	
9	0	0	0	0	510	508	0	532	38	57	
10	0	0	0	0	510	508	0	547	38	58	
11	0	0	0	0	511	508	0	547	38	59	
12	0	0	0	0	509	506	0	529	38	58	
13	0	0	0	0	509	506	0	502	38	56	
14	0	0	0	0	507	506	0	476	38	54	
15	0	0	0	0	508	506	0	448	38	54	
0	0	0	0	0	509	507	0	446	39	55	
1	0	0	0	0	511	506	0	450	38	57	
2	0	0	0	0	510	508	0	456	38	58	
3	0	0	0	0	508	506	0	472	38	59	
4	0	0	0	0	509	507	0	481	38	58	
5	0	0	0	0	510	508	0	497	38	57	
6	0	0	0	0	509	508	0	497	38	55	
7	0	0	0	0	509	508	0	495	38	54	
8	0	0	0	0	508	507	0	487	39	55	
9	0	0	0	0	508	509	0	487	38	56	
10	0	0	0	0	509	510	0	495	38	58	
11	0	0	0	0	509	510	0	513	38	58	
12	0	0	0	0	510	511	0	519	38	58	
13	0	0	0	0	509	511	0	531	38	57	
14	0	0	0	0	510	510	0	547	38	55	
15	0	0	0	0	510	508	0	568	38	54	
0	0	0	0	0	510	507	0	550	39	54	
1	0	0	0	0	508	507	0	529	38	56	
2	0	0	0	0	508	507	0	530	38	57	
3	0	0	0	0	509	507	0	533	38	58	
4	0	0	0	0	507	507	0	521	38	59	
5	0	0	0	0	509	508	0	512	38	58	
6	0	0	0	0	509	509	0	502	38	56	
7	0	0	0	0	509	508	0	511	38	54	
8	0	0	0	0	508	507	0	511	39	54	
9	0	0	0	0	511	505	0	512	38	55	
10	0	0	0	0	510	506	0	519	38	57	
11	0	0	0	0	509	505	0	520	38	58	
12	0	0	0	0	508	505	0	530	38	59	
13	0	0	0	0	509	507	0	541	38	58	
14	0	0	0	0	509	508	0	546	38	57	
15	0	0	0	0	508	509	0	544	38	55	
0	0	0	0	0	510	510	0	526	39	54	
1	0	0	0	0	510	510	0	531	38	54	
2	0	0	0	0	511	510	0	552	38	56	
3	0	0	0	0	509	510	0	568	38	58	
4	0	0	0	0	510	509	0	564	38	58	
5	0	0	0	0	509	509	0	543	38	59	
6	0	0	0	0	510	510	0	535	38	57	
7	0	0	0	0	509	510	0	533	38	55	
8	0	0	0	0	510	510	0	527	39	54	
9	0	0	0	0	510	509	0	537	38	54	
10	0	0	0	0	508	508	0	553	38	56	
11	0	0	0	0	507	508	0	567	38	57	
12	0	0	0	0	508	507	0	567	38	58	
13	0	0	0	0	509	509	0	563	38	59	
14	0	0	0	0	510	505	0	564	38	58	
15	0	0	0	0	509	505	0	551	38	56	
0	0	0	0	0	510	507	0	544	39	54	
1	0	0	0	0	509	507	0	547	38	54	
2	0	0	0	0	511	507	0	546	38	55	
3	0	0	0	0	512	504	0	549	38	57	
4	0	0	0	0	511	504	0	546	38	58	
5	0	0	0	0	510	505	0	559	38	59	
6	0	0	0	0	510	506	0	576	38	58	
7	0	0	0	0	508	507	0	583	38	57	
8	0	0	0	0	510	506	0	582	39	55	
9	0	0	0	0	509	507	0	574	38	54	
10	0	0	0	0	510	507	0	577	38	54	
11	0	0	0	0	508	509	0	579	38	56	
12	0	0	0	0	511	509	0	578	38	58	
13	0	0	0	0	508	508	0	566	38	58	
14	0	0	0	0	508	508	0	551	38	59	
15	0	0	0	0	509	507	0	548	38	57	
0	0	0	0	0	510	507	0	546	39	55	
1	0	0	0	0	507	505	0	550	38	54	
2	0	0	0	0	510	503	0	547	38	54	
3	0	0	0	0	510	504	0	529	38	56	
4	0	0	0	0	509	505	0	531	38	57	
5	0	0	0	0	510	508	0	538	38	58	
6	0	0	0	0	507	506	0	545	38	59	
7	0	0	0	0	508	505	0	551	38	58	
8	0	0	0	0	510	505	0	541	39	56	
9	0	0	0	0	508	505	0	550	38	54	
10	0	0	0	0	509	506	0	574	38	54	
11	0	0	0	0	510	506	0	587	38	55	
12	0	0	0	0	509	507	0	582	38	57	
13	0	0	0	0	510	507	0	547	38	58	
14	0	0	0	0	512	508	0	541	38	59	
15	0	0	0	0	508	509	0	543	38	58	
0	0	0	0	0	511	511	0	540	39	57	
1	0	0	0	0	510	511	0	532	38	55	
2	0	0	0	0	509	512	0	514	38	54	
3	0	0	0	0	508	513	0	513	38	54	
4	0	0	0	0	511	512	0	516	38	56	
5	0	0	0	0	508	511	0	519	38	58	
6	0	0	0	0	509	511	0	517	38	58	
7	0	0	0	0	508	511	0	487	38	59	
8	0	0	0	0	509	511	0	485	39	58	
9	0	0	0	0	508	511	0	501	38	56	
10	0	0	0	0	510	510	0	525	38	54	
11	0	0	0	0	511	510	0	537	38	54	
12	0	0	0	0	510	509	0	527	38	56	
13	0	0	0	0	508	509	0	530	38	57	
14	0	0	0	0	510	510	0	536	38	58	
15	0	0	0	0	508	508	0	540	38	59	
0	0	0	0	0	509	508	0	540	39	58	
1	0	0	0	0	510	508	0	526	38	56	
2	0	0	0	0	510	510	0	530	38	54	
3	0	0	0	0	508	510	0	537	38	54	
4	0	0	0	0	510	509	0	537	38	55	
5	0	0	0	0	507	510	0	529	38	57	
6	0	0	0	0	510	508	0	502	38	58	
7	0	0	0	0	510	509	0	490	38	59	
8	0	0	0	0	511	508	0	502	39	58	
9	0	0	0	0	510	507	0	512	38	57	
10	0	0	0	0	510	506	0	515	38	55	
11	0	0	0	0	509	505	0	527	38	54	
12	0	0	0	0	510	504	0	531	38	54	
13	0	0	0	0	509	505	0	527	38	56	
14	0	0	0	0	509	504	0	509	38	58	
15	0	0	0	0	508	506	0	487	38	58	
0	0	0	0	0	506	505	0	469	39	59	
1	0	0	0	0	508	507	0	488	38	58	
2	0	0	0	0	508	508	0	515	38	56	
3	0	0	0	0	509	507	0	526	38	54	
4	0	0	0	0	510	507	0	536	38	54	
5	0	0	0	0	509	507	0	540	38	56	
6	0	0	0	0	508	507	0	535	38	57	
7	0	0	0	0	511	507	0	524	38	58	
8	0	0	0	0	511	507	0	507	39	59	
9	0	0	0	0	510	506	0	499	38	58	
10	0	0	0	0	509	507	0	482	38	56	
11	0	0	0	0	510	508	0	483	38	54	
12	0	0	0	0	511	509	0	492	38	54	
13	0	0	0	0	510	508	0	490	38	55	
14	0	0	0	0	508	507	0	493	38	57	
15	0	0	0	0	506	508	0	476	38	58	
0	0	0	0	0	508	509	0	471	39	59	
1	0	0	0	0	510	509	0	468	38	58	
2	0	0	0	0	508	510	0	457	38	57	
3	0	0	0	0	508	508	0	455	38	55	
4	0	0	0	0	507	507	0	460	38	54	
5	0	0	0	0	509	507	0	476	38	54	
6	0	0	0	0	509	508	0	483	38	56	
7	0	0	0	0	508	507	0	483	38	58	
8	0	0	0	0	507	506	0	479	39	58	
9	0	0	0	0	508	507	0	459	38	59	
10	0	0	0	0	510	508	0	452	38	58	
11	0	0	0	0	508	508	0	462	38	56	
12	0	0	0	0	510	507	0	476	38	54	
13	0	0	0	0	509	508	0	488	38	54	
14	0	0	0	0	508	508	0	487	38	56	
15	0	0	0	0	510	507	0	497	38	57	
0	0	0	0	0	510	507	0	502	39	58	
1	0	0	0	0	511	508	0	502	38	59	
2	0	0	0	0	510	507	0	504	38	58	
3	0	0	0	0	510	507	0	478	38	56	
4	0	0	0	0	510	508	0	463	38	54	
5	0	0	0	0	512	508	0	457	38	54	
6	0	0	0	0	511	510	0	456	38	55	
7	0	0	0	0	509	509	0	454	38	57	
8	0	0	0	0	510	509	0	445	39	58	
9	0	0	0	0	509	507	0	440	38	59	
10	0	0	0	0	508	508	0	443	38	58	
11	0	0	0	0	507	508	0	455	38	57	
12	0	0	0	0	509	508	0	464	38	55	
13	0	0	0	0	508	507	0	470	38	54	
14	0	0	0	0	509	509	0	472	38	54	
15	0	0	0	0	507	510	0	462	38	56	
0	0	0	0	0	508	510	0	458	39	57	
1	0	0	0	0	507	510	0	451	38	58	
2	0	0	0	0	509	509	0	435	38	59	
3	0	0	0	0	511	510	0	427	38	58	
4	0	0	0	0	511	510	0	439	38	56	
5	0	0	0	0	510	509	0	448	38	54	
6	0	0	0	0	510	509	0	447	38	54	
7	0	0	0	0	510	510	0	428	38	55	
8	0	0	0	0	508	510	0	430	39	57	
9	0	0	0	0	509	512	0	436	38	58	
10	0	0	0	0	510	511	0	453	38	59	
11	0	0	0	0	510	511	0	475	38	58	
12	0	0	0	0	508	512	0	486	38	56	
13	0	0	0	0	510	511	0	499	38	54	
14	0	0	0	0	510	510	0	511	38	54	
15	0	0	0	0	510	509	0	521	38	55	
0	0	0	0	0	509	508	0	525	39	57	
1	0	0	0	0	509	508	0	509	38	58	
2	0	0	0	0	508	509	0	499	38	59	
3	0	0	0	0	509	509	0	487	38	58	
4	0	0	0	0	507	510	0	479	38	57	
5	0	0	0	0	510	509	0	460	38	55	
6	0	0	0	0	509	509	0	426	38	54	
7	0	0	0	0	509	509	0	430	38	54	
8	0	0	0	0	511	508	0	447	39	56	
9	0	0	0	0	508	508	0	449	38	57	
10	0	0	0	0	507	508	0	442	38	58	
11	0	0	0	0	508	507	0	433	38	59	
12	0	0	0	0	508	507	0	433	38	58	
13	0	0	0	0	509	506	0	445	38	56	
14	0	0	0	0	508	506	0	462	38	54	
15	0	0	0	0	508	505	0	487	38	54	
0	0	0	0	0	509	505	0	498	39	55	
1	0	0	0	0	508	507	0	510	38	57	
2	0	0	0	0	508	507	0	515	38	58	
3	0	0	0	0	507	508	0	520	38	59	
4	0	0	0	0	509	509	0	498	38	58	
5	0	0	0	0	510	509	0	499	38	57	
6	0	0	0	0	511	511	0	522	38	55	
7	0	0	0	0	509	510	0	540	38	54	
8	0	0	0	0	509	510	0	540	39	55	
9	0	0	0	0	510	510	0	528	38	57	
10	0	0	0	0	512	510	0	520	38	58	
11	0	0	0	0	511	509	0	521	38	59	
12	0	0	0	0	512	508	0	513	38	58	
13	0	0	0	0	508	509	0	489	38	57	
14	0	0	0	0	508	508	0	480	38	55	
15	0	0	0	0	510	508	0	469	38	54	
0	0	0	0	0	509	508	0	476	39	54	
1	0	0	0	0	510	507	0	479	38	56	
2	0	0	0	0	508	508	0	473	38	57	
3	0	0	0	0	508	508	0	479	38	58	
4	0	0	0	0	509	508	0	467	38	59	
5	0	0	0	0	506	508	0	469	38	58	
6	0	0	0	0	509	509	0	477	38	56	
7	0	0	0	0	508	508	0	475	38	54	
8	0	0	0	0	508	506	0	483	39	54	
9	0	0	0	0	508	507	0	489	38	55	
10	0	0	0	0	510	506	0	497	38	57	
11	0	0	0	0	508	507	0	504	38	58	
12	0	0	0	0	510	505	0	519	38	59	
13	0	0	0	0	508	504	0	508	38	58	
14	0	0	0	0	508	506	0	489	38	57	
15	0	0	0	0	507	507	0	497	38	55	
0	0	0	0	0	511	506	0	509	39	54	
1	0	0	0	0	510	508	0	518	38	55	
2	0	0	0	0	508	508	0	513	38	57	
3	0	0	0	0	510	508	0	494	38	58	
4	0	0	0	0	509	506	0	498	38	59	
5	0	0	0	0	509	506	0	494	38	59	
6	0	0	0	0	509	505	0	524	38	57	
7	0	0	0	0	509	504	0	544	38	55	
8	0	0	0	0	507	505	0	547	39	54	
9	0	0	0	0	508	506	0	542	38	54	
10	0	0	0	0	511	507	0	528	38	56	
11	0	0	0	0	510	507	0	492	38	57	
12	0	0	0	0	508	506	0	475	38	58	
13	0	0	0	0	509	505	0	464	38	59	
14	0	0	0	0	509	505	0	470	38	58	
15	0	0	0	0	510	505	0	487	38	56	
0	0	0	0	0	510	508	0	496	39	54	
1	0	0	0	0	510	508	0	508	38	54	
2	0	0	0	0	509	508	0	502	38	55	
3	0	0	0	0	510	508	0	515	38	57	
4	0	0	0	0	510	508	0	531	38	58	
5	0	0	0	0	509	507	0	535	38	59	
6	0	0	0	0	508	506	0	546	38	58	
7	0	0	0	0	508	505	0	542	38	57	
8	0	0	0	0	510	505	0	557	39	55	
9	0	0	0	0	509	506	0	577	38	54	
10	0	0	0	0	513	508	0	592	38	55	
11	0	0	0	0	508	508	0	595	38	57	
12	0	0	0	0	509	509	0	575	38	58	
13	0	0	0	0	508	510	0	568	38	59	
14	0	0	0	0	510	508	0	572	38	59	
15	0	0	0	0	511	507	0	578	38	57	
0	0	0	0	0	509	507	0	564	39	55	
1	0	0	0	0	510	507	0	552	38	54	
2	0	0	0	0	508	506	0	557	38	54	
3	0	0	0	0	508	507	0	559	38	56	
4	0	0	0	0	508	507	0	557	38	57	
5	0	0	0	0	509	506	0	539	38	58	
6	0	0	0	0	510	507	0	529	38	59	
7	0	0	0	0	509	510	0	539	38	58	
8	0	0	0	0	510	510	0	558	39	56	
9	0	0	0	0	510	510	0	560	38	54	
10	0	0	0	0	509	510	0	551	38	54	
11	0	0	0	0	508	509	0	542	38	55	
12	0	0	0	0	510	509	0	546	38	57	
13	0	0	0	0	510	508	0	549	38	58	
14	0	0	0	0	506	507	0	547	38	59	
15	0	0	0	0	508	507	0	535	38	58	
0	0	0	0	0	508	507	0	520	39	57	
1	0	0	0	0	509	509	0	524	38	55	
2	0	0	0	0	510	509	0	533	38	54	
3	0	0	0	0	510	509	0	527	38	55	
4	0	0	0	0	509	510	0	515	38	57	
5	0	0	0	0	508	510	0	492	38	58	
6	0	0	0	0	509	510	0	492	38	59	
7	0	0	0	0	511	511	0	510	38	59	
8	0	0	0	0	510	509	0	526	39	57	
9	0	0	0	0	511	509	0	534	38	55	
10	0	0	0	0	511	509	0	525	38	54	
11	0	0	0	0	508	509	0	533	38	54	
12	0	0	0	0	510	510	0	542	38	56	
13	0	0	0	0	508	510	0	552	38	57	
14	0	0	0	0	507	512	0	558	38	58	
15	0	0	0	0	508	511	0	542	38	59	
0	0	0	0	0	507	512	0	545	39	58	
1	0	0	0	0	510	511	0	560	38	56	
2	0	0	0	0	509	510	0	531	38	54	
3	0	0	0	0	509	509	0	514	38	54	
4	0	0	0	0	510	507	0	490	38	55	
5	0	0	0	0	508	508	0	471	38	57	
6	0	0	0	0	509	508	0	461	38	58	
7	0	0	0	0	509	508	0	452	38	59	
8	0	0	0	0	510	507	0	460	39	58	
9	0	0	0	0	507	505	0	473	38	57	
10	0	0	0	0	511	505	0	480	38	55	
11	0	0	0	0	510	507	0	485	38	54	
12	0	0	0	0	511	508	0	492	38	55	
13	0	0	0	0	510	508	0	504	38	56	
14	0	0	0	0	510	509	0	512	38	58	
15	0	0	0	0	511	509	0	516	38	59	
0	0	0	0	0	510	511	0	506	39	59	
1	0	0	0	0	510	508	0	510	38	57	
2	0	0	0	0	509	507	0	505	38	56	
3	0	0	0	0	509	507	0	495	38	54	
4	0	0	0	0	511	507	0	486	38	54	
5	0	0	0	0	509	507	0	476	38	56	
6	0	0	0	0	509	506	0	491	38	57	
7	0	0	0	0	508	505	0	513	38	58	
8	0	0	0	0	507	505	0	529	39	59	
9	0	0	0	0	508	504	0	541	38	58	
10	0	0	0	0	509	507	0	553	38	56	
11	0	0	0	0	510	506	0	566	38	54	
12	0	0	0	0	507	506	0	556	38	54	
13	0	0	0	0	510	507	0	538	38	55	
14	0	0	0	0	510	507	0	549	38	57	
15	0	0	0	0	508	506	0	568	38	58	
0	0	0	0	0	510	505	0	585	39	59	
1	0	0	0	0	510	507	0	600	38	58	
2	0	0	0	0	511	506	0	591	38	57	
3	0	0	0	0	510	507	0	584	38	55	
4	0	0	0	0	511	508	0	576	38	54	
5	0	0	0	0	510	507	0	555	38	55	
6	0	0	0	0	510	507	0	545	38	56	
7	0	0	0	0	509	507	0	529	38	58	
8	0	0	0	0	509	507	0	536	39	59	
9	0	0	0	0	509	507	0	547	38	59	
10	0	0	0	0	511	508	0	556	38	58	
11	0	0	0	0	509	508	0	555	38	56	
12	0	0	0	0	508	508	0	524	38	54	
13	0	0	0	0	508	508	0	506	38	54	
14	0	0	0	0	509	508	0	494	38	56	
15	0	0	0	0	509	509	0	491	38	57	
0	0	0	0	0	507	509	0	487	39	58	
1	0	0	0	0	508	508	0	478	38	59	
2	0	0	0	0	511	507	0	476	38	58	
3	0	0	0	0	510	507	0	467	38	56	
4	0	0	0	0	509	504	0	447	38	54	
5	0	0	0	0	508	507	0	437	38	54	
6	0	0	0	0	510	508	0	430	38	55	
7	0	0	0	0	508	505	0	444	38	57	
8	0	0	0	0	510	507	0	458	39	58	
9	0	0	0	0	508	507	0	460	38	59	
10	0	0	0	0	510	508	0	460	38	58	
11	0	0	0	0	511	508	0	465	38	57	
12	0	0	0	0	512	508	0	473	38	55	
13	0	0	0	0	510	509	0	488	38	54	
14	0	0	0	0	509	511	0	498	38	55	
15	0	0	0	0	509	510	0	507	38	56	
0	0	0	0	0	508	509	0	504	39	58	
1	0	0	0	0	508	506	0	515	38	59	
2	0	0	0	0	509	505	0	520	38	59	
3	0	0	0	0	510	505	0	515	38	58	
4	0	0	0	0	509	505	0	517	38	56	
5	0	0	0	0	508	505	0	531	38	54	
6	0	0	0	0	510	505	0	547	38	54	
7	0	0	0	0	510	504	0	556	38	56	
8	0	0	0	0	510	505	0	551	39	57	
9	0	0	0	0	508	506	0	552	38	58	
10	0	0	0	0	508	507	0	551	38	59	
11	0	0	0	0	507	507	0	559	38	58	
12	0	0	0	0	507	508	0	569	38	56	
13	0	0	0	0	509	507	0	561	38	54	
14	0	0	0	0	509	508	0	556	38	54	
15	0	0	0	0	507	510	0	537	38	55	
0	0	0	0	0	508	510	0	522	39	57	
1	0	0	0	0	507	510	0	499	38	58	
2	0	0	0	0	510	509	0	492	38	59	
3	0	0	0	0	511	508	0	470	38	58	
4	0	0	0	0	511	508	0	425	38	57	
5	0	0	0	0	511	508	0	411	38	55	
6	0	0	0	0	509	508	0	418	38	54	
7	0	0	0	0	508	508	0	412	38	55	
8	0	0	0	0	508	509	0	396	39	56	
9	0	0	0	0	508	511	0	379	38	58	
10	0	0	0	0	509	508	0	378	38	59	
11	0	0	0	0	510	508	0	400	38	59	
12	0	0	0	0	509	506	0	418	38	58	
13	0	0	0	0	508	505	0	428	38	56	
14	0	0	0	0	509	505	0	425	38	54	
15	0	0	0	0	508	504	0	449	38	54	
0	0	0	0	0	510	505	0	468	39	56	
1	0	0	0	0	509	505	0	466	38	57	
2	0	0	0	0	509	504	0	463	38	58	
3	0	0	0	0	508	506	0	453	38	59	
4	0	0	0	0	510	507	0	459	38	58	
5	0	0	0	0	510	508	0	481	38	56	
6	0	0	0	0	510	508	0	506	38	54	
7	0	0	0	0	509	506	0	521	38	54	
8	0	0	0	0	511	505	0	505	39	55	
9	0	0	0	0	508	506	0	507	38	57	
10	0	0	0	0	509	508	0	506	38	58	
11	0	0	0	0	509	509	0	484	38	59	
12	0	0	0	0	508	507	0	459	38	58	
13	0	0	0	0	509	507	0	448	38	57	
14	0	0	0	0	508	507	0	442	38	55	
15	0	0	0	0	509	508	0	456	38	54	
0	0	0	0	0	508	508	0	466	39	55	
1	0	0	0	0	509	507	0	461	38	56	
2	0	0	0	0	509	508	0	455	38	58	
3	0	0	0	0	508	510	0	465	38	59	
4	0	0	0	0	512	509	0	477	38	59	
5	0	0	0	0	511	510	0	488	38	58	
6	0	0	0	0	510	507	0	499	38	56	
7	0	0	0	0	508	506	0	499	38	54	
8	0	0	0	0	510	506	0	513	39	54	
9	0	0	0	0	509	505	0	510	38	56	
10	0	0	0	0	510	504	0	501	38	57	
11	0	0	0	0	509	504	0	501	38	58	
12	0	0	0	0	508	504	0	506	38	59	
13	0	0	0	0	511	505	0	527	38	58	
14	0	0	0	0	510	504	0	543	38	56	
15	0	0	0	0	509	504	0	543	38	54	
0	0	0	0	0	510	505	0	556	39	54	
1	0	0	0	0	509	504	0	566	38	55	
2	0	0	0	0	508	505	0	578	38	57	
3	0	0	0	0	510	506	0	571	38	58	
4	0	0	0	0	510	507	0	545	38	59	
5	0	0	0	0	508	508	0	531	38	58	
6	0	0	0	0	511	508	0	518	38	57	
7	0	0	0	0	509	508	0	509	38	55	
8	0	0	0	0	509	509	0	502	39	54	
9	0	0	0	0	508	511	0	479	38	55	
10	0	0	0	0	508	510	0	469	38	56	
11	0	0	0	0	510	511	0	455	38	58	
12	0	0	0	0	509	511	0	448	38	59	
13	0	0	0	0	508	511	0	468	38	59	
14	0	0	0	0	510	511	0	495	38	58	
15	0	0	0	0	510	509	0	515	38	56	
0	0	0	0	0	511	508	0	518	39	54	
1	0	0	0	0	507	507	0	544	38	54	
2	0	0	0	0	508	506	0	573	38	56	
3	0	0	0	0	508	506	0	585	38	57	
4	0	0	0	0	507	507	0	580	38	58	
5	0	0	0	0	510	509	0	548	38	59	
6	0	0	0	0	509	508	0	534	38	58	
7	0	0	0	0	511	508	0	527	38	56	
8	0	0	0	0	510	507	0	519	39	55	
9	0	0	0	0	511	507	0	510	38	54	
10	0	0	0	0	508	508	0	487	38	55	
11	0	0	0	0	509	509	0	497	38	57	
12	0	0	0	0	510	508	0	509	38	58	
13	0	0	0	0	509	508	0	521	38	59	
14	0	0	0	0	509	508	0	538	38	59	
15	0	0	0	0	508	510	0	544	38	57	
0	0	0	0	0	508	510	0	539	39	55	
1	0	0	0	0	509	511	0	535	38	54	
2	0	0	0	0	510	510	0	526	38	55	
3	0	0	0	0	509	509	0	512	38	56	
4	0	0	0	0	509	510	0	505	38	58	
5	0	0	0	0	509	510	0	505	38	59	
6	0	0	0	0	509	508	0	512	38	59	
7	0	0	0	0	511	509	0	524	38	58	
8	0	0	0	0	508	511	0	519	39	56	
9	0	0	0	0	511	511	0	509	38	54	
10	0	0	0	0	507	510	0	503	38	54	
11	0	0	0	0	509	510	0	497	38	56	
12	0	0	0	0	508	510	0	495	38	57	
13	0	0	0	0	508	510	0	481	38	58	
14	0	0	0	0	511	509	0	470	38	59	
15	0	0	0	0	510	509	0	476	38	58	
0	0	0	0	0	509	508	0	488	39	57	
1	0	0	0	0	511	509	0	500	38	55	
2	0	0	0	0	510	510	0	514	38	54	
3	0	0	0	0	510	509	0	504	38	55	
4	0	0	0	0	510	508	0	520	38	57	
5	0	0	0	0	510	510	0	511	38	58	
6	0	0	0	0	508	510	0	500	38	59	
7	0	0	0	0	508	508	0	496	38	59	
8	0	0	0	0	509	507	0	489	39	57	
9	0	0	0	0	508	507	0	503	38	55	
10	0	0	0	0	507	510	0	518	38	54	
11	0	0	0	0	508	511	0	519	38	55	
12	0	0	0	0	510	512	0	516	38	56	
13	0	0	0	0	509	512	0	492	38	58	
14	0	0	0	0	506	511	0	473	38	59	
15	0	0	0	0	508	508	0	463	38	59	
0	0	0	0	0	509	508	0	440	39	58	
1	0	0	0	0	511	507	0	433	38	56	
2	0	0	0	0	510	507	0	411	38	54	
3	0	0	0	0	511	507	0	419	38	54	
4	0	0	0	0	509	507	0	449	38	56	
5	0	0	0	0	511	507	0	474	38	57	
6	0	0	0	0	513	504	0	489	38	58	
7	0	0	0	0	512	506	0	507	38	59	
8	0	0	0	0	511	507	0	544	39	58	
9	0	0	0	0	511	507	0	571	38	57	
10	0	0	0	0	508	507	0	585	38	55	
11	0	0	0	0	512	507	0	584	38	54	
12	0	0	0	0	509	506	0	578	38	55	
13	0	0	0	0	510	507	0	579	38	57	
14	0	0	0	0	511	506	0	571	38	58	
15	0	0	0	0	511	507	0	559	38	59	
0	0	0	0	0	509	507	0	564	39	59	
1	0	0	0	0	511	508	0	569	38	57	
2	0	0	0	0	510	509	0	582	38	55	
3	0	0	0	0	510	510	0	600	38	54	
4	0	0	0	0	510	510	0	593	38	55	
5	0	0	0	0	511	510	0	584	38	56	
6	0	0	0	0	510	509	0	560	38	58	
7	0	0	0	0	511	508	0	553	38	59	
8	0	0	0	0	512	507	0	534	39	59	
9	0	0	0	0	510	507	0	536	38	58	
10	0	0	0	0	511	507	0	550	38	56	
11	0	0	0	0	510	507	0	546	38	54	
12	0	0	0	0	510	507	0	541	38	54	
13	0	0	0	0	510	508	0	546	38	56	
14	0	0	0	0	509	506	0	543	38	57	
15	0	0	0	0	510	507	0	544	38	58	
0	0	0	0	0	509	508	0	540	39	59	
1	0	0	0	0	507	508	0	540	38	58	
2	0	0	0	0	510	509	0	532	38	57	
3	0	0	0	0	512	509	0	529	38	55	
4	0	0	0	0	511	509	0	536	38	54	
5	0	0	0	0	510	510	0	527	38	55	
6	0	0	0	0	510	507	0	528	38	57	
7	0	0	0	0	511	507	0	529	38	58	
8	0	0	0	0	510	508	0	529	39	59	
9	0	0	0	0	510	508	0	536	38	59	
10	0	0	0	0	508	507	0	533	38	57	
11	0	0	0	0	509	508	0	546	38	55	
12	0	0	0	0	508	506	0	566	38	54	
13	0	0	0	0	508	505	0	575	38	55	
14	0	0	0	0	507	505	0	583	38	56	
15	0	0	0	0	509	506	0	566	38	58	
0	0	0	0	0	510	506	0	563	39	59	
1	0	0	0	0	510	505	0	572	38	59	
2	0	0	0	0	508	504	0	567	38	58	
3	0	0	0	0	512	504	0	567	38	56	
4	0	0	0	0	511	504	0	554	38	54	
5	0	0	0	0	509	505	0	558	38	54	
6	0	0	0	0	508	506	0	565	38	56	
7	0	0	0	0	510	505	0	559	38	57	
8	0	0	0	0	508	507	0	546	39	58	
9	0	0	0	0	510	508	0	527	38	59	
10	0	0	0	0	510	509	0	519	38	58	
11	0	0	0	0	509	508	0	521	38	57	
12	0	0	0	0	508	508	0	514	38	55	
13	0	0	0	0	508	508	0	518	38	54	
14	0	0	0	0	509	508	0	512	38	55	
15	0	0	0	0	510	508	0	516	38	57	
0	0	0	0	0	507	508	0	522	39	58	
1	0	0	0	0	508	508	0	526	38	59	
2	0	0	0	0	509	507	0	518	38	59	
3	0	0	0	0	508	507	0	517	38	57	
4	0	0	0	0	508	508	0	522	38	55	
5	0	0	0	0	509	508	0	523	38	54	
6	0	0	0	0	507	505	0	524	38	55	
7	0	0	0	0	508	506	0	524	38	56	
8	0	0	0	0	508	505	0	515	39	58	
9	0	0	0	0	508	504	0	506	38	59	
10	0	0	0	0	507	505	0	489	38	59	
11	0	0	0	0	507	507	0	473	38	58	
12	0	0	0	0	508	508	0	473	38	56	
13	0	0	0	0	506	511	0	471	38	54	
14	0	0	0	0	507	510	0	481	38	54	
15	0	0	0	0	507	510	0	486	38	56	
0	0	0	0	0	508	512	0	487	39	57	
1	0	0	0	0	508	510	0	489	38	58	
2	0	0	0	0	507	511	0	467	38	59	
3	0	0	0	0	508	509	0	453	38	58	
4	0	0	0	0	510	510	0	455	38	57	
5	0	0	0	0	508	510	0	465	38	55	
6	0	0	0	0	509	509	0	486	38	54	
7	0	0	0	0	508	509	0	480	38	55	
8	0	0	0	0	511	506	0	483	39	57	
9	0	0	0	0	509	508	0	476	38	58	
10	0	0	0	0	510	508	0	455	38	59	
11	0	0	0	0	508	507	0	431	38	59	
12	0	0	0	0	510	505	0	421	38	57	
13	0	0	0	0	509	505	0	442	38	55	
14	0	0	0	0	509	505	0	455	38	54	
15	0	0	0	0	508	505	0	455	38	55	
0	0	0	0	0	508	504	0	463	39	56	
1	0	0	0	0	510	504	0	457	38	58	
2	0	0	0	0	508	505	0	470	38	59	
3	0	0	0	0	508	505	0	486	38	59	
4	0	0	0	0	511	504	0	489	38	58	
5	0	0	0	0	511	505	0	498	38	56	
6	0	0	0	0	510	505	0	508	38	54	
7	0	0	0	0	510	507	0	526	38	54	
8	0	0	0	0	508	508	0	530	39	56	
9	0	0	0	0	510	508	0	520	38	57	
10	0	0	0	0	510	508	0	520	38	58	
11	0	0	0	0	509	510	0	511	38	59	
12	0	0	0	0	508	509	0	508	38	58	
13	0	0	0	0	507	510	0	506	38	57	
14	0	0	0	0	508	508	0	492	38	55	
15	0	0	0	0	509	508	0	489	38	54	
0	0	0	0	0	508	508	0	495	39	55	
1	0	0	0	0	506	508	0	508	38	57	
2	0	0	0	0	508	508	0	515	38	58	
3	0	0	0	0	508	507	0	502	38	59	
4	0	0	0	0	511	506	0	495	38	59	
5	0	0	0	0	510	505	0	492	38	58	
6	0	0	0	0	511	505	0	498	38	56	
7	0	0	0	0	509	505	0	515	38	54	
8	0	0	0	0	509	507	0	527	39	55	
9	0	0	0	0	510	505	0	523	38	56	
10	0	0	0	0	509	508	0	508	38	58	
11	0	0	0	0	509	507	0	508	38	59	
12	0	0	0	0	510	506	0	507	38	59	
13	0	0	0	0	509	508	0	514	38	58	
14	0	0	0	0	509	509	0	521	38	56	
15	0	0	0	0	507	507	0	515	38	54	
0	0	0	0	0	508	508	0	521	39	54	
1	0	0	0	0	510	507	0	530	38	56	
2	0	0	0	0	507	506	0	543	38	57	
3	0	0	0	0	509	506	0	542	38	58	
4	0	0	0	0	509	506	0	516	38	59	
5	0	0	0	0	509	507	0	498	38	58	
6	0	0	0	0	510	508	0	502	38	57	
7	0	0	0	0	508	508	0	502	38	55	
8	0	0	0	0	509	507	0	486	39	54	
9	0	0	0	0	510	507	0	464	38	55	
10	0	0	0	0	509	507	0	473	38	57	
11	0	0	0	0	509	507	0	489	38	58	
12	0	0	0	0	507	507	0	502	38	59	
13	0	0	0	0	508	508	0	518	38	59	
14	0	0	0	0	508	508	0	504	38	58	
15	0	0	0	0	509	509	0	516	38	56	
0	0	0	0	0	509	508	0	539	39	54	
1	0	0	0	0	509	507	0	551	38	55	
2	0	0	0	0	511	505	0	557	38	56	
3	0	0	0	0	509	505	0	550	38	58	
4	0	0	0	0	508	507	0	553	38	59	
5	0	0	0	0	508	508	0	564	38	59	
6	0	0	0	0	507	509	0	568	38	58	
7	0	0	0	0	510	509	0	568	38	56	
8	0	0	0	0	510	508	0	548	39	54	
9	0	0	0	0	508	507	0	540	38	54	
10	0	0	0	0	511	506	0	543	38	56	
11	0	0	0	0	509	507	0	533	38	57	
12	0	0	0	0	510	505	0	526	38	58	
13	0	0	0	0	509	506	0	509	38	59	
14	0	0	0	0	509	508	0	500	38	58	
15	0	0	0	0	509	505	0	504	38	57	
0	0	0	0	0	508	505	0	517	39	55	
1	0	0	0	0	509	505	0	529	38	54	
2	0	0	0	0	508	507	0	523	38	55	
3	0	0	0	0	507	506	0	531	38	57	
4	0	0	0	0	508	506	0	534	38	58	
5	0	0	0	0	511	508	0	525	38	59	
6	0	0	0	0	510	508	0	520	38	59	
7	0	0	0	0	510	509	0	512	38	58	
8	0	0	0	0	511	508	0	518	39	56	
9	0	0	0	0	510	508	0	519	38	54	
10	0	0	0	0	510	507	0	513	38	54	
11	0	0	0	0	508	509	0	503	38	56	
12	0	0	0	0	509	508	0	463	38	58	
13	0	0	0	0	508	509	0	450	38	59	
14	0	0	0	0	508	509	0	451	38	59	
15	0	0	0	0	507	510	0	473	38	58	
0	0	0	0	0	509	508	0	493	39	56	
1	0	0	0	0	508	510	0	500	38	54	
2	0	0	0	0	507	508	0	499	38	54	
3	0	0	0	0	510	509	0	499	38	56	
4	0	0	0	0	508	508	0	504	38	57	
5	0	0	0	0	508	508	0	508	38	58	
6	0	0	0	0	509	508	0	502	38	59	
7	0	0	0	0	508	508	0	508	38	58	
8	0	0	0	0	510	508	0	498	39	57	
9	0	0	0	0	509	509	0	488	38	55	
10	0	0	0	0	510	509	0	497	38	54	
11	0	0	0	0	509	508	0	505	38	55	
12	0	0	0	0	508	508	0	529	38	57	
13	0	0	0	0	508	509	0	555	38	58	
14	0	0	0	0	507	510	0	571	38	59	
15	0	0	0	0	507	510	0	568	38	59	
0	0	0	0	0	509	510	0	541	39	58	
1	0	0	0	0	509	510	0	536	38	56	
2	0	0	0	0	510	510	0	544	38	54	
3	0	0	0	0	510	510	0	548	38	54	
4	0	0	0	0	510	509	0	541	38	56	
5	0	0	0	0	512	509	0	528	38	58	
6	0	0	0	0	511	509	0	527	38	59	
7	0	0	0	0	511	509	0	531	38	59	
8	0	0	0	0	510	509	0	527	39	58	
9	0	0	0	0	510	510	0	518	38	56	
10	0	0	0	0	509	512	0	494	38	55	
11	0	0	0	0	508	513	0	480	38	54	
12	0	0	0	0	509	514	0	485	38	55	
13	0	0	0	0	509	515	0	496	38	57	
14	0	0	0	0	507	513	0	504	38	58	
15	0	0	0	0	507	512	0	498	38	59	
0	0	0	0	0	508	510	0	501	39	59	
1	0	0	0	0	509	510	0	500	38	57	
2	0	0	0	0	508	510	0	498	38	55	
3	0	0	0	0	507	509	0	499	38	54	
4	0	0	0	0	510	509	0	480	38	55	
5	0	0	0	0	510	508	0	478	38	57	
6	0	0	0	0	510	509	0	497	38	58	
7	0	0	0	0	509	511	0	516	38	59	
8	0	0	0	0	510	510	0	536	39	59	
9	0	0	0	0	508	509	0	544	38	58	
10	0	0	0	0	507	508	0	542	38	56	
11	0	0	0	0	508	509	0	523	38	54	
12	0	0	0	0	508	508	0	508	38	54	
13	0	0	0	0	509	509	0	501	38	56	
14	0	0	0	0	510	510	0	505	38	58	
15	0	0	0	0	511	509	0	539	38	59	
0	0	0	0	0	510	509	0	542	39	59	
1	0	0	0	0	510	508	0	533	38	58	
2	0	0	0	0	509	509	0	521	38	56	
3	0	0	0	0	509	508	0	512	38	55	
4	0	0	0	0	509	507	0	531	38	54	
5	0	0	0	0	509	508	0	542	38	55	
6	0	0	0	0	509	510	0	536	38	57	
7	0	0	0	0	508	509	0	538	38	58	
8	0	0	0	0	507	506	0	530	39	59	
9	0	0	0	0	511	508	0	529	38	59	
10	0	0	0	0	510	509	0	534	38	57	
11	0	0	0	0	509	510	0	524	38	55	
12	0	0	0	0	511	511	0	516	38	54	
13	0	0	0	0	509	509	0	506	38	55	
14	0	0	0	0	509	509	0	513	38	57	
15	0	0	0	0	508	508	0	536	38	58	
0	0	0	0	0	507	508	0	525	39	59	
1	0	0	0	0	507	509	0	510	38	59	
2	0	0	0	0	507	510	0	477	38	58	
3	0	0	0	0	509	510	0	469	38	56	
4	0	0	0	0	509	509	0	475	38	54	
5	0	0	0	0	508	509	0	456	38	54	
6	0	0	0	0	509	508	0	445	38	56	
7	0	0	0	0	509	508	0	428	38	58	
8	0	0	0	0	511	508	0	434	39	59	
9	0	0	0	0	509	508	0	456	38	59	
10	0	0	0	0	509	507	0	466	38	58	
11	0	0	0	0	510	508	0	469	38	56	
12	0	0	0	0	512	508	0	460	38	55	
13	0	0	0	0	510	508	0	457	38	54	
14	0	0	0	0	509	509	0	458	38	55	
15	0	0	0	0	508	508	0	461	38	57	
0	0	0	0	0	510	508	0	466	39	58	
1	0	0	0	0	508	506	0	471	38	59	
2	0	0	0	0	509	505	0	487	38	59	
3	0	0	0	0	509	506	0	515	38	57	
4	0	0	0	0	510	507	0	545	38	55	
5	0	0	0	0	508	506	0	546	38	54	
6	0	0	0	0	507	506	0	537	38	55	
7	0	0	0	0	509	507	0	533	38	56	
8	0	0	0	0	509	505	0	523	39	58	
9	0	0	0	0	510	505	0	513	38	59	
10	0	0	0	0	507	507	0	513	38	59	
11	0	0	0	0	508	506	0	503	38	58	
12	0	0	0	0	508	508	0	498	38	56	
13	0	0	0	0	510	507	0	497	38	54	
14	0	0	0	0	509	506	0	494	38	54	
15	0	0	0	0	508	507	0	500	38	56	
0	0	0	0	0	508	505	0	507	39	57	
1	0	0	0	0	511	506	0	519	38	59	
2	0	0	0	0	510	507	0	527	38	59	
3	0	0	0	0	509	508	0	527	38	58	
4	0	0	0	0	509	508	0	512	38	57	
5	0	0	0	0	509	508	0	504	38	55	
6	0	0	0	0	510	508	0	506	38	54	
7	0	0	0	0	511	506	0	517	38	55	
8	0	0	0	0	510	507	0	524	39	57	
9	0	0	0	0	512	507	0	528	38	58	
10	0	0	0	0	510	504	0	523	38	59	
11	0	0	0	0	509	505	0	523	38	59	
12	0	0	0	0	510	508	0	537	38	57	
13	0	0	0	0	509	508	0	541	38	55	
14	0	0	0	0	510	506	0	536	38	54	
15	0	0	0	0	509	507	0	535	38	55	
0	0	0	0	0	509	508	0	535	39	56	
1	0	0	0	0	510	508	0	548	38	58	
2	0	0	0	0	509	507	0	543	38	59	
3	0	0	0	0	508	508	0	536	38	59	
4	0	0	0	0	508	508	0	515	38	58	
5	0	0	0	0	506	508	0	502	38	56	
6	0	0	0	0	505	508	0	504	38	54	
7	0	0	0	0	507	508	0	515	38	54	
8	0	0	0	0	508	507	0	506	39	56	
9	0	0	0	0	510	508	0	504	38	57	
10	0	0	0	0	508	507	0	514	38	59	
11	0	0	0	0	510	507	0	512	38	59	
12	0	0	0	0	511	506	0	507	38	58	
13	0	0	0	0	509	506	0	500	38	57	
14	0	0	0	0	509	507	0	483	38	55	
15	0	0	0	0	511	508	0	497	38	54	
0	0	0	0	0	508	508	0	501	39	55	
1	0	0	0	0	509	506	0	477	38	57	
2	0	0	0	0	509	506	0	451	38	58	
3	0	0	0	0	508	505	0	421	38	59	
4	0	0	0	0	510	505	0	425	38	59	
5	0	0	0	0	510	504	0	445	38	57	
6	0	0	0	0	510	506	0	463	38	55	
7	0	0	0	0	511	507	0	483	38	54	
8	0	0	0	0	510	506	0	480	39	55	
9	0	0	0	0	509	507	0	479	38	56	
10	0	0	0	0	511	507	0	480	38	58	
11	0	0	0	0	512	506	0	493	38	59	
12	0	0	0	0	510	505	0	491	38	59	
13	0	0	0	0	508	506	0	460	38	58	
14	0	0	0	0	510	505	0	447	38	56	
15	0	0	0	0	507	507	0	444	38	54	
0	0	0	0	0	506	508	0	454	39	54	
1	0	0	0	0	507	510	0	456	38	56	
2	0	0	0	0	505	509	0	454	38	57	
3	0	0	0	0	506	507	0	457	38	59	
4	0	0	0	0	508	506	0	455	38	59	
5	0	0	0	0	512	506	0	461	38	58	
6	0	0	0	0	513	508	0	465	38	57	
7	0	0	0	0	513	505	0	468	38	55	
8	0	0	0	0	511	505	0	494	39	54	
9	0	0	0	0	511	505	0	515	38	55	
10	0	0	0	0	510	506	0	515	38	57	
11	0	0	0	0	509	506	0	496	38	58	
12	0	0	0	0	510	506	0	467	38	59	
13	0	0	0	0	509	507	0	471	38	59	
14	0	0	0	0	509	508	0	479	38	57	
15	0	0	0	0	509	508	0	498	38	55	
0	0	0	0	0	510	508	0	523	39	54	
1	0	0	0	0	505	508	0	517	38	55	
2	0	0	0	0	509	507	0	523	38	56	
3	0	0	0	0	508	507	0	528	38	58	
4	0	0	0	0	508	509	0	540	38	59	
5	0	0	0	0	511	509	0	554	38	59	
6	0	0	0	0	511	508	0	550	38	58	
7	0	0	0	0	509	508	0	551	38	56	
8	0	0	0	0	508	510	0	547	39	54	
9	0	0	0	0	509	509	0	540	38	54	
10	0	0	0	0	510	507	0	545	38	56	
11	0	0	0	0	508	507	0	532	38	57	
12	0	0	0	0	507	507	0	526	38	58	
13	0	0	0	0	508	507	0	525	38	59	
14	0	0	0	0	510	508	0	526	38	58	
15	0	0	0	0	508	508	0	526	38	57	
0	0	0	0	0	510	509	0	519	39	55	
1	0	0	0	0	510	510	0	535	38	54	
2	0	0	0	0	509	510	0	551	38	55	
3	0	0	0	0	512	510	0	557	38	57	
4	0	0	0	0	510	510	0	560	38	58	
5	0	0	0	0	510	510	0	539	38	59	
6	0	0	0	0	510	508	0	501	38	59	
7	0	0	0	0	511	507	0	479	38	57	
8	0	0	0	0	508	508	0	472	39	55	
9	0	0	0	0	509	510	0	475	38	54	
10	0	0	0	0	511	509	0	475	38	55	
11	0	0	0	0	510	508	0	479	38	56	
12	0	0	0	0	509	506	0	479	38	58	
13	0	0	0	0	509	505	0	479	38	59	
14	0	0	0	0	509	507	0	466	38	59	
15	0	0	0	0	510	506	0	448	38	58	
0	0	0	0	0	509	506	0	438	39	56	
1	0	0	0	0	509	508	0	449	38	54	
2	0	0	0	0	507	507	0	461	38	54	
3	0	0	0	0	508	505	0	471	38	56	
4	0	0	0	0	508	504	0	475	38	57	
5	0	0	0	0	508	504	0	486	38	58	
6	0	0	0	0	509	505	0	499	38	59	
7	0	0	0	0	510	506	0	510	38	58	
8	0	0	0	0	511	507	0	511	39	57	
9	0	0	0	0	508	507	0	495	38	55	
10	0	0	0	0	509	507	0	483	38	54	
11	0	0	0	0	509	508	0	479	38	55	
12	0	0	0	0	512	507	0	470	38	57	
13	0	0	0	0	508	506	0	446	38	58	
14	0	0	0	0	509	505	0	413	38	59	
15	0	0	0	0	511	505	0	419	38	59	
0	0	0	0	0	510	506	0	449	39	57	
1	0	0	0	0	511	505	0	479	38	55	
2	0	0	0	0	509	505	0	509	38	54	
3	0	0	0	0	509	506	0	519	38	55	
4	0	0	0	0	510	505	0	535	38	56	
5	0	0	0	0	509	506	0	547	38	58	
6	0	0	0	0	509	507	0	552	38	59	
7	0	0	0	0	508	507	0	548	38	59	
8	0	0	0	0	509	508	0	529	39	58	
9	0	0	0	0	508	508	0	529	38	56	
10	0	0	0	0	509	507	0	540	38	54	
11	0	0	0	0	508	507	0	546	38	54	
12	0	0	0	0	508	507	0	553	38	56	
13	0	0	0	0	511	507	0	543	38	57	
14	0	0	0	0	511	506	0	555	38	58	
15	0	0	0	0	508	505	0	568	38	59	
0	0	0	0	0	512	504	0	551	39	58	
1	0	0	0	0	511	506	0	539	38	57	
2	0	0	0	0	509	507	0	511	38	55	
3	0	0	0	0	507	506	0	503	38	54	
4	0	0	0	0	512	507	0	506	38	55	
5	0	0	0	0	510	508	0	523	38	57	
6	0	0	0	0	508	508	0	532	38	58	
7	0	0	0	0	508	508	0	524	38	59	
8	0	0	0	0	510	508	0	534	39	59	
9	0	0	0	0	509	506	0	548	38	58	
10	0	0	0	0	507	506	0	541	38	56	
11	0	0	0	0	508	505	0	534	38	54	
12	0	0	0	0	510	507	0	513	38	55	
13	0	0	0	0	510	505	0	500	38	56	
14	0	0	0	0	510	505	0	495	38	58	
15	0	0	0	0	507	505	0	496	38	59	
0	0	0	0	0	507	507	0	504	39	59	
1	0	0	0	0	508	506	0	502	38	58	
2	0	0	0	0	511	508	0	508	38	56	
3	0	0	0	0	508	511	0	511	38	54	
4	0	0	0	0	510	511	0	505	38	54	
5	0	0	0	0	510	510	0	493	38	56	
6	0	0	0	0	507	509	0	492	38	57	
7	0	0	0	0	510	507	0	495	38	58	
8	0	0	0	0	511	506	0	505	39	59	
9	0	0	0	0	511	506	0	510	38	58	
10	0	0	0	0	508	506	0	516	38	57	
11	0	0	0	0	509	507	0	523	38	55	
12	0	0	0	0	510	506	0	531	38	54	
13	0	0	0	0	508	505	0	544	38	55	
14	0	0	0	0	511	507	0	562	38	57	
15	0	0	0	0	511	508	0	573	38	58	
0	0	0	0	0	510	509	0	563	39	59	
1	0	0	0	0	509	507	0	574	38	59	
2	0	0	0	0	509	509	0	580	38	58	
3	0	0	0	0	509	508	0	572	38	56	
4	0	0	0	0	510	508	0	564	38	54	
5	0	0	0	0	512	507	0	551	38	55	
6	0	0	0	0	509	507	0	559	38	56	
7	0	0	0	0	508	506	0	562	38	58	
8	0	0	0	0	507	508	0	555	39	59	
9	0	0	0	0	504	509	0	544	38	59	
10	0	0	0	0	508	510	0	533	38	58	
11	0	0	0	0	511	511	0	542	38	56	
12	0	0	0	0	514	510	0	545	38	55	
13	0	0	0	0	512	510	0	543	38	54	
14	0	0	0	0	512	507	0	547	38	56	
15	0	0	0	0	509	507	0	536	38	57	
0	0	0	0	0	510	505	0	535	39	58	
1	0	0	0	0	511	505	0	537	38	59	
2	0	0	0	0	508	506	0	524	38	59	
3	0	0	0	0	510	507	0	521	38	57	
4	0	0	0	0	508	507	0	527	38	55	
5	0	0	0	0	507	507	0	545	38	54	
6	0	0	0	0	508	508	0	559	38	55	
7	0	0	0	0	509	510	0	556	38	57	
8	0	0	0	0	508	513	0	555	39	58	
9	0	0	0	0	510	512	0	531	38	59	
10	0	0	0	0	509	511	0	521	38	59	
11	0	0	0	0	509	511	0	527	38	58	
12	0	0	0	0	508	510	0	529	38	56	
13	0	0	0	0	510	509	0	519	38	54	
14	0	0	0	0	510	508	0	502	38	55	
15	0	0	0	0	508	510	0	509	38	56	
0	0	0	0	0	509	508	0	508	39	58	
1	0	0	0	0	509	510	0	509	38	59	
2	0	0	0	0	509	511	0	515	38	59	
3	0	0	0	0	510	510	0	496	38	58	
4	0	0	0	0	509	508	0	485	38	56	
5	0	0	0	0	509	509	0	485	38	55	
6	0	0	0	0	510	509	0	488	38	54	
7	0	0	0	0	510	507	0	505	38	56	
8	0	0	0	0	511	508	0	515	39	57	
9	0	0	0	0	511	506	0	542	38	58	
10	0	0	0	0	510	507	0	554	38	59	
11	0	0	0	0	509	508	0	546	38	59	
12	0	0	0	0	507	508	0	544	38	57	
13	0	0	0	0	508	508	0	525	38	55	
14	0	0	0	0	507	508	0	512	38	54	
15	0	0	0	0	510	508	0	508	38	55	
0	0	0	0	0	508	509	0	504	39	57	
1	0	0	0	0	508	509	0	499	38	58	
2	0	0	0	0	512	508	0	488	38	59	
3	0	0	0	0	511	508	0	499	38	59	
4	0	0	0	0	513	507	0	499	38	58	
5	0	0	0	0	510	507	0	492	38	56	
6	0	0	0	0	508	508	0	486	38	54	
7	0	0	0	0	509	509	0	472	38	55	
8	0	0	0	0	508	510	0	470	39	56	
9	0	0	0	0	508	510	0	467	38	58	
10	0	0	0	0	507	510	0	469	38	59	
11	0	0	0	0	507	509	0	484	38	59	
12	0	0	0	0	508	507	0	487	38	58	
13	0	0	0	0	510	508	0	498	38	56	
14	0	0	0	0	509	510	0	517	38	55	
15	0	0	0	0	508	510	0	541	38	54	
0	0	0	0	0	509	509	0	563	39	56	
1	0	0	0	0	510	510	0	567	38	57	
2	0	0	0	0	508	510	0	569	38	58	
3	0	0	0	0	511	509	0	568	38	59	
4	0	0	0	0	511	509	0	568	38	59	
5	0	0	0	0	511	510	0	574	38	57	
6	0	0	0	0	511	509	0	568	38	55	
7	0	0	0	0	510	507	0	576	38	54	
8	0	0	0	0	510	507	0	591	39	55	
9	0	0	0	0	512	507	0	603	38	57	
10	0	0	0	0	511	507	0	609	38	58	
11	0	0	0	0	508	506	0	595	38	59	
12	0	0	0	0	510	504	0	595	38	59	
13	0	0	0	0	510	504	0	588	38	58	
14	0	0	0	0	508	504	0	563	38	56	
15	0	0	0	0	508	505	0	527	38	54	
0	0	0	0	0	510	505	0	497	39	55	
1	0	0	0	0	508	507	0	508	38	56	
2	0	0	0	0	510	508	0	521	38	58	
3	0	0	0	0	510	510	0	529	38	59	
4	0	0	0	0	510	510	0	520	38	59	
5	0	0	0	0	509	510	0	497	38	58	
6	0	0	0	0	508	508	0	471	38	56	
7	0	0	0	0	507	508	0	445	38	55	
8	0	0	0	0	510	509	0	439	39	54	
9	0	0	0	0	507	507	0	435	38	56	
10	0	0	0	0	508	507	0	428	38	57	
11	0	0	0	0	509	506	0	416	38	58	
12	0	0	0	0	507	506	0	410	38	59	
13	0	0	0	0	507	507	0	424	38	59	
14	0	0	0	0	510	507	0	417	38	57	
15	0	0	0	0	509	508	0	409	38	55	
0	0	0	0	0	510	508	0	408	39	54	
1	0	0	0	0	509	510	0	409	38	55	
2	0	0	0	0	507	511	0	420	38	57	
3	0	0	0	0	510	512	0	429	38	58	
4	0	0	0	0	509	511	0	435	38	59	
5	0	0	0	0	509	510	0	453	38	59	
6	0	0	0	0	507	509	0	423	38	58	
7	0	0	0	0	507	508	0	413	38	56	
8	0	0	0	0	508	507	0	414	39	54	
9	0	0	0	0	507	508	0	411	38	55	
10	0	0	0	0	508	509	0	400	38	56	
11	0	0	0	0	508	509	0	407	38	58	
12	0	0	0	0	510	507	0	425	38	59	
13	0	0	0	0	508	507	0	444	38	59	
14	0	0	0	0	509	508	0	464	38	58	
15	0	0	0	0	508	507	0	492	38	57	
0	0	0	0	0	511	509	0	520	39	55	
1	0	0	0	0	508	509	0	543	38	54	
2	0	0	0	0	511	510	0	542	38	56	
3	0	0	0	0	508	510	0	518	38	57	
4	0	0	0	0	511	510	0	513	38	58	
5	0	0	0	0	511	510	0	515	38	59	
6	0	0	0	0	509	510	0	500	38	59	
7	0	0	0	0	510	509	0	483	38	57	
8	0	0	0	0	511	509	0	456	39	55	
9	0	0	0	0	509	508	0	467	38	54	
10	0	0	0	0	510	508	0	483	38	55	
11	0	0	0	0	508	507	0	486	38	57	
12	0	0	0	0	509	507	0	483	38	58	
13	0	0	0	0	507	508	0	457	38	59	
14	0	0	0	0	507	509	0	447	38	59	
15	0	0	0	0	508	508	0	446	38	58	
0	0	0	0	0	507	507	0	440	39	56	
1	0	0	0	0	507	508	0	432	38	54	
2	0	0	0	0	508	507	0	431	38	55	
3	0	0	0	0	505	507	0	441	38	56	
4	0	0	0	0	508	506	0	441	38	58	
5	0	0	0	0	509	505	0	447	38	59	
6	0	0	0	0	510	505	0	457	38	59	
7	0	0	0	0	510	505	0	455	38	58	
8	0	0	0	0	511	504	0	473	39	57	
9	0	0	0	0	511	504	0	491	38	55	
10	0	0	0	0	511	503	0	514	38	54	
11	0	0	0	0	509	504	0	527	38	56	
12	0	0	0	0	508	505	0	515	38	57	
13	0	0	0	0	508	505	0	514	38	58	
14	0	0	0	0	510	505	0	519	38	59	
15	0	0	0	0	510	506	0	526	38	59	
0	0	0	0	0	506	507	0	526	39	57	
1	0	0	0	0	508	507	0	523	38	55	
2	0	0	0	0	508	506	0	539	38	54	
3	0	0	0	0	510	505	0	550	38	55	
4	0	0	0	0	508	506	0	556	38	57	
5	0	0	0	0	509	507	0	545	38	58	
6	0	0	0	0	509	506	0	527	38	59	
7	0	0	0	0	508	506	0	523	38	59	
8	0	0	0	0	510	505	0	506	39	58	
9	0	0	0	0	512	505	0	498	38	56	
10	0	0	0	0	511	505	0	498	38	55	
11	0	0	0	0	510	506	0	491	38	55	
12	0	0	0	0	509	504	0	480	38	56	
13	0	0	0	0	509	504	0	464	38	58	
14	0	0	0	0	511	504	0	455	38	59	
15	0	0	0	0	508	503	0	455	38	59	
0	0	0	0	0	509	502	0	466	39	58	
1	0	0	0	0	508	503	0	476	38	57	
2	0	0	0	0	509	503	0	483	38	55	
3	0	0	0	0	507	504	0	492	38	55	
4	0	0	0	0	509	504	0	494	38	56	
5	0	0	0	0	508	505	0	492	38	57	
6	0	0	0	0	508	505	0	513	38	59	
7	0	0	0	0	511	505	0	539	38	59	
8	0	0	0	0	510	506	0	556	39	59	
9	0	0	0	0	510	507	0	553	38	57	
10	0	0	0	0	510	507	0	519	38	55	
11	0	0	0	0	509	508	0	508	38	54	
12	0	0	0	0	509	507	0	514	38	55	
13	0	0	0	0	507	507	0	525	38	57	
14	0	0	0	0	508	505	0	536	38	58	
15	0	0	0	0	507	506	0	525	38	59	
0	0	0	0	0	508	507	0	532	39	59	
1	0	0	0	0	508	507	0	532	38	58	
2	0	0	0	0	512	508	0	526	38	56	
3	0	0	0	0	511	509	0	522	38	55	
4	0	0	0	0	511	510	0	513	38	55	
5	0	0	0	0	512	509	0	519	38	56	
6	0	0	0	0	510	509	0	523	38	58	
7	0	0	0	0	508	510	0	530	38	59	
8	0	0	0	0	507	510	0	530	39	59	
9	0	0	0	0	507	508	0	516	38	58	
10	0	0	0	0	508	508	0	519	38	57	
11	0	0	0	0	509	508	0	534	38	55	
12	0	0	0	0	509	509	0	539	38	55	
13	0	0	0	0	510	511	0	526	38	56	
14	0	0	0	0	511	512	0	499	38	57	
15	0	0	0	0	508	510	0	506	38	59	
0	0	0	0	0	507	510	0	521	39	59	
1	0	0	0	0	508	511	0	530	38	59	
2	0	0	0	0	511	510	0	531	38	58	
3	0	0	0	0	510	511	0	519	38	56	
4	0	0	0	0	509	511	0	524	38	55	
5	0	0	0	0	507	511	0	531	38	55	
6	0	0	0	0	510	511	0	523	38	57	
7	0	0	0	0	509	511	0	508	38	58	
8	0	0	0	0	509	512	0	487	39	59	
9	0	0	0	0	508	512	0	478	38	59	
10	0	0	0	0	510	512	0	483	38	58	
11	0	0	0	0	510	510	0	497	38	56	
12	0	0	0	0	508	508	0	516	38	55	
13	0	0	0	0	509	507	0	515	38	55	
14	0	0	0	0	508	508	0	510	38	56	
15	0	0	0	0	510	509	0	499	38	58	
0	0	0	0	0	510	509	0	502	39	59	
1	0	0	0	0	507	509	0	506	38	59	
2	0	0	0	0	509	507	0	493	38	59	
3	0	0	0	0	509	508	0	499	38	57	
4	0	0	0	0	508	508	0	509	38	55	
5	0	0	0	0	509	508	0	513	38	55	
6	0	0	0	0	510	506	0	513	38	56	
7	0	0	0	0	509	506	0	506	38	57	
8	0	0	0	0	508	506	0	508	39	59	
9	0	0	0	0	509	506	0	521	38	59	
10	0	0	0	0	508	507	0	530	38	59	
11	0	0	0	0	509	508	0	537	38	58	
12	0	0	0	0	510	507	0	527	38	56	
13	0	0	0	0	508	507	0	514	38	55	
14	0	0	0	0	509	508	0	510	38	55	
15	0	0	0	0	510	508	0	514	38	57	
0	0	0	0	0	511	508	0	522	39	58	
1	0	0	0	0	509	507	0	513	38	59	
2	0	0	0	0	510	508	0	509	38	59	
3	0	0	0	0	510	510	0	521	38	58	
4	0	0	0	0	508	510	0	531	38	56	
5	0	0	0	0	508	511	0	541	38	55	
6	0	0	0	0	510	511	0	536	38	55	
7	0	0	0	0	507	510	0	548	38	56	
8	0	0	0	0	510	510	0	563	39	58	
9	0	0	0	0	508	508	0	563	38	59	
10	0	0	0	0	510	508	0	558	38	59	
11	0	0	0	0	508	508	0	533	38	59	
12	0	0	0	0	511	507	0	540	38	57	
13	0	0	0	0	510	509	0	572	38	55	
14	0	0	0	0	509	510	0	570	38	55	
15	0	0	0	0	510	510	0	582	38	56	
0	0	0	0	0	509	508	0	588	39	57	
1	0	0	0	0	507	509	0	611	38	59	
2	0	0	0	0	510	508	0	633	38	59	
3	0	0	0	0	509	509	0	628	38	59	
4	0	0	0	0	508	510	0	606	38	58	
5	0	0	0	0	508	510	0	586	38	56	
6	0	0	0	0	508	509	0	560	38	55	
7	0	0	0	0	508	507	0	548	38	55	
8	0	0	0	0	509	507	0	536	39	57	
9	0	0	0	0	508	509	0	540	38	58	
10	0	0	0	0	510	507	0	537	38	59	
11	0	0	0	0	511	508	0	546	38	59	
12	0	0	0	0	509	508	0	531	38	58	
13	0	0	0	0	510	507	0	508	38	56	
14	0	0	0	0	510	506	0	492	38	55	
15	0	0	0	0	509	506	0	473	38	55	
0	0	0	0	0	510	507	0	459	39	56	
1	0	0	0	0	511	508	0	450	38	58	
2	0	0	0	0	509	509	0	452	38	59	
3	0	0	0	0	508	510	0	453	38	59	
4	0	0	0	0	510	510	0	455	38	59	
5	0	0	0	0	509	509	0	470	38	57	
6	0	0	0	0	508	510	0	491	38	55	
7	0	0	0	0	510	509	0	506	38	55	
8	0	0	0	0	508	510	0	512	39	56	
9	0	0	0	0	508	511	0	511	38	57	
10	0	0	0	0	508	511	0	523	38	59	
11	0	0	0	0	508	510	0	526	38	59	
12	0	0	0	0	508	509	0	516	38	59	
13	0	0	0	0	508	508	0	514	38	58	
14	0	0	0	0	509	510	0	490	38	56	
15	0	0	0	0	509	509	0	482	38	55	
0	0	0	0	0	508	507	0	482	39	55	
1	0	0	0	0	508	505	0	483	38	57	
2	0	0	0	0	509	505	0	485	38	58	
3	0	0	0	0	508	506	0	484	38	59	
4	0	0	0	0	508	505	0	494	38	59	
5	0	0	0	0	512	504	0	505	38	58	
6	0	0	0	0	511	505	0	519	38	57	
7	0	0	0	0	510	504	0	539	38	55	
8	0	0	0	0	508	504	0	537	39	55	
9	0	0	0	0	508	503	0	528	38	56	
10	0	0	0	0	507	503	0	535	38	58	
11	0	0	0	0	509	505	0	551	38	59	
12	0	0	0	0	507	506	0	535	38	59	
13	0	0	0	0	510	507	0	495	38	59	
14	0	0	0	0	510	507	0	464	38	57	
15	0	0	0	0	512	507	0	454	38	55	
0	0	0	0	0	513	510	0	460	39	55	
1	0	0	0	0	513	509	0	460	38	56	
2	0	0	0	0	509	508	0	453	38	57	
3	0	0	0	0	509	507	0	467	38	59	
4	0	0	0	0	503	507	0	486	38	59	
5	0	0	0	0	496	507	0	499	38	59	
6	0	0	0	0	495	508	0	513	38	58	
7	0	0	0	0	510	508	0	525	38	56	
8	0	0	0	0	527	508	0	542	39	55	
9	0	0	0	0	524	506	0	544	38	55	
10	0	0	0	0	522	507	0	536	38	57	
11	0	0	0	0	511	508	0	529	38	58	
12	0	0	0	0	506	507	0	503	38	59	
13	0	0	0	0	505	508	0	497	38	59	
14	0	0	0	0	506	509	0	499	38	58	
15	0	0	0	0	509	509	0	497	38	57	
0	0	0	0	0	507	507	0	472	39	55	
1	0	0	0	0	507	508	0	443	38	55	
2	0	0	0	0	506	510	0	440	38	56	
3	0	0	0	0	507	509	0	457	38	58	
4	0	0	0	0	506	509	0	467	38	59	
5	0	0	0	0	505	510	0	468	38	59	
6	0	0	0	0	507	511	0	479	38	59	
7	0	0	0	0	507	509	0	519	38	58	
8	0	0	0	0	507	509	0	541	39	56	
9	0	0	0	0	510	508	0	538	38	55	
10	0	0	0	0	509	506	0	521	38	56	
11	0	0	0	0	508	506	0	504	38	58	
12	0	0	0	0	508	508	0	511	38	59	
13	0	0	0	0	508	507	0	516	38	59	
14	0	0	0	0	509	505	0	506	38	59	
15	0	0	0	0	509	505	0	496	38	58	
0	0	0	0	0	509	506	0	470	39	56	
1	0	0	0	0	507	505	0	463	38	55	
2	0	0	0	0	511	505	0	479	38	56	
3	0	0	0	0	513	505	0	497	38	57	
4	0	0	0	0	510	505	0	509	38	58	
5	0	0	0	0	509	505	0	497	38	59	
6	0	0	0	0	510	506	0	486	38	59	
7	0	0	0	0	509	505	0	468	38	59	
8	0	0	0	0	508	505	0	455	39	57	
9	0	0	0	0	511	505	0	455	38	55	
10	0	0	0	0	508	506	0	444	38	55	
11	0	0	0	0	509	506	0	440	38	57	
12	0	0	0	0	509	507	0	450	38	58	
13	0	0	0	0	508	509	0	451	38	59	
14	0	0	0	0	507	509	0	454	38	59	
15	0	0	0	0	510	508	0	450	38	59	
0	0	0	0	0	509	508	0	449	39	58	
1	0	0	0	0	510	510	0	454	38	56	
2	0	0	0	0	508	509	0	468	38	55	
3	0	0	0	0	508	509	0	486	38	56	
4	0	0	0	0	508	509	0	485	38	58	
5	0	0	0	0	512	508	0	488	38	59	
6	0	0	0	0	509	508	0	492	38	59	
7	0	0	0	0	510	509	0	503	38	59	
8	0	0	0	0	509	509	0	501	39	58	
9	0	0	0	0	511	507	0	486	38	57	
10	0	0	0	0	509	508	0	468	38	55	
11	0	0	0	0	510	507	0	480	38	56	
12	0	0	0	0	510	508	0	487	38	57	
13	0	0	0	0	508	507	0	478	38	59	
14	0	0	0	0	506	508	0	455	38	59	
15	0	0	0	0	508	506	0	444	38	59	
0	0	0	0	0	508	505	0	450	39	59	
1	0	0	0	0	511	504	0	465	38	57	
2	0	0	0	0	509	504	0	472	38	56	
3	0	0	0	0	508	505	0	472	38	55	
4	0	0	0	0	509	505	0	479	38	57	
5	0	0	0	0	509	506	0	498	38	58	
6	0	0	0	0	508	506	0	528	38	59	
7	0	0	0	0	510	508	0	560	38	59	
8	0	0	0	0	510	508	0	566	39	59	
9	0	0	0	0	511	508	0	577	38	58	
10	0	0	0	0	510	508	0	590	38	56	
11	0	0	0	0	511	509	0	591	38	55	
12	0	0	0	0	508	508	0	581	38	56	
13	0	0	0	0	508	506	0	564	38	58	
14	0	0	0	0	510	505	0	562	38	59	
15	0	0	0	0	508	504	0	549	38	59	
0	0	0	0	0	510	504	0	522	39	59	
1	0	0	0	0	508	504	0	502	38	59	
2	0	0	0	0	510	506	0	471	38	57	
3	0	0	0	0	508	506	0	454	38	56	
4	0	0	0	0	510	506	0	461	38	56	
5	0	0	0	0	509	506	0	470	38	58	
6	0	0	0	0	509	507	0	477	38	59	
7	0	0	0	0	509	507	0	469	38	59	
8	0	0	0	0	508	504	0	480	39	59	
9	0	0	0	0	510	505	0	489	38	59	
10	0	0	0	0	508	507	0	494	38	58	
11	0	0	0	0	508	508	0	504	38	56	
12	0	0	0	0	509	508	0	502	38	56	
13	0	0	0	0	508	511	0	519	38	57	
14	0	0	0	0	509	511	0	538	38	59	
15	0	0	0	0	507	511	0	543	38	59	
0	0	0	0	0	510	510	0	545	39	59	
1	0	0	0	0	510	508	0	540	38	59	
2	0	0	0	0	511	507	0	534	38	58	
3	0	0	0	0	508	505	0	524	38	56	
4	0	0	0	0	507	507	0	506	38	56	
5	0	0	0	0	509	508	0	507	38	57	
6	0	0	0	0	508	507	0	513	38	58	
7	0	0	0	0	510	506	0	529	38	59	
8	0	0	0	0	510	505	0	548	39	59	
9	0	0	0	0	509	506	0	560	38	59	
10	0	0	0	0	510	507	0	564	38	59	
11	0	0	0	0	508	509	0	549	38	57	
12	0	0	0	0	508	508	0	538	38	56	
13	0	0	0	0	509	507	0	528	38	56	
14	0	0	0	0	509	506	0	516	38	58	
15	0	0	0	0	508	506	0	512	38	59	
0	0	0	0	0	509	509	0	488	39	59	
1	0	0	0	0	508	508	0	482	38	60	
2	0	0	0	0	509	507	0	479	38	59	
3	0	0	0	0	508	507	0	474	38	58	
4	0	0	0	0	510	505	0	478	38	56	
5	0	0	0	0	507	506	0	482	38	56	
6	0	0	0	0	511	506	0	504	38	57	
7	0	0	0	0	510	506	0	520	38	59	
8	0	0	0	0	508	506	0	531	39	59	
9	0	0	0	0	509	506	0	539	38	60	
