timestamp,signal
0,514
1,515
2,516
3,519
4,518
5,513
6,502
7,495
8,493
9,498
10,502
11,504
12,505
13,500
14,500
15,499
16,497
17,497
18,497
19,502
20,509
21,514
22,513
23,511
24,508
25,504
26,504
27,504
28,508
29,515
30,519
31,519
32,521
33,519
34,515
35,504
36,488
37,483
38,488
39,490
40,489
41,487
42,488
43,489
44,492
45,491
46,484
47,480
48,476
49,472
50,475
51,481
52,488
53,492
54,491
55,488
56,487
57,485
58,483
59,481
60,480
61,479
62,479
63,482
64,483
65,484
66,485
67,483
68,478
69,477
70,480
71,482
72,483
73,486
74,492
75,497
76,500
77,499
78,496
79,492
80,488
81,489
82,487
83,486
84,484
85,482
86,481
87,486
88,497
89,505
90,507
91,500
92,493
93,491
94,492
95,488
96,487
97,482
98,477
99,474
100,473
101,474
102,478
103,483
104,488
105,494
106,497
107,504
108,513
109,524
110,537
111,551
112,561
113,572
114,584
115,591
116,600
117,615
118,632
119,650
120,667
121,680
122,690
123,696
124,696
125,685
126,681
127,676
128,667
129,654
130,646
131,632
132,612
133,588
134,570
135,554
136,540
137,524
138,510
139,499
140,484
141,463
142,444
143,428
144,416
145,410
146,403
147,398
148,391
149,388
150,386
151,384
152,383
153,387
154,391
155,394
156,401
157,407
158,412
159,420
160,424
161,431
162,433
163,432
164,441
165,452
166,457
167,460
168,465
169,470
170,475
171,480
172,482
173,482
174,483
175,485
176,486
177,485
178,482
179,478
180,476
181,476
182,479
183,487
184,492
185,493
186,495
187,496
188,497
189,500
190,502
191,507
192,507
193,502
194,493
195,487
196,487
197,487
198,486
199,484
200,484
201,488
202,496
203,498
204,494
205,490
206,495
207,500
208,501
209,501
210,504
211,500
212,495
213,493
214,492
215,492
216,497
217,504
218,507
219,507
220,507
221,505
222,506
223,505
224,507
225,511
226,516
227,524
228,526
229,527
230,526
231,528
232,530
233,531
234,531
235,531
236,526
237,523
238,522
239,522
240,519
241,519
242,528
243,538
244,544
245,552
246,558
247,558
248,555
249,551
250,547
251,545
252,546
253,547
254,548
255,551
256,556
257,558
258,556
259,555
260,554
261,553
262,557
263,560
264,559
265,556
266,551
267,550
268,552
269,556
270,558
271,561
272,564
273,574
274,591
275,604
276,616
277,620
278,618
279,612
280,606
281,603
282,600
283,591
284,586
285,582
286,578
287,574
288,575
289,581
290,584
291,589
292,591
293,589
294,589
295,588
296,587
297,588
298,590
299,590
300,588
301,585
302,583
303,579
304,575
305,572
306,566
307,556
308,544
309,537
310,533
311,534
312,535
313,533
314,529
315,525
316,522
317,519
318,520
319,525
320,532
321,537
322,536
323,531
324,524
325,519
326,514
327,513
328,510
329,507
330,506
331,503
332,497
333,492
334,491
335,489
336,487
337,484
338,483
339,481
340,472
341,460
342,451
343,446
344,442
345,443
346,448
347,456
348,467
349,473
350,474
351,478
352,484
353,487
354,486
355,482
356,480
357,483
358,487
359,491
360,491
361,487
362,487
363,488
364,486
365,479
366,471
367,464
368,459
369,458
370,459
371,460
372,457
373,453
374,445
375,442
376,442
377,441
378,441
379,444
380,449
381,449
382,450
383,448
384,447
385,449
386,451
387,450
388,450
389,453
390,458
391,457
392,450
393,445
394,445
395,449
396,453
397,461
398,469
399,477
400,485
401,485
402,480
403,477
404,474
405,473
406,468
407,460
408,455
409,450
410,448
411,445
412,444
413,451
414,463
415,467
416,470
417,473
418,473
419,476
420,478
421,480
422,482
423,483
424,478
425,471
426,463
427,459
428,457
429,455
430,453
431,453
432,455
433,452
434,450
435,453
436,454
437,452
438,451
439,455
440,461
441,463
442,465
443,467
444,467
445,463
446,462
447,464
448,468
449,474
450,477
451,476
452,475
453,475
454,471
455,467
456,466
457,465
458,463
459,465
460,469
461,470
462,470
463,469
464,471
465,474
466,476
467,477
468,480
469,481
470,485
471,490
472,491
473,492
474,496
475,497
476,496
477,496
478,496
479,498
480,499
481,496
482,499
483,499
484,494
485,492
486,491
487,491
488,490
489,491
490,492
491,492
492,487
493,478
494,471
495,467
496,467
497,470
498,476
499,476
500,477
501,479
502,481
503,483
504,485
505,492
506,500
507,503
508,500
509,504
510,511
511,513
512,513
513,518
514,523
515,526
516,524
517,519
518,518
519,515
520,515
521,513
522,504
523,496
524,494
525,492
526,490
527,490
528,492
529,495
530,496
531,496
532,496
533,496
534,499
535,503
536,505
537,506
538,506
539,503
540,498
541,494
542,492
543,491
544,487
545,483
546,478
547,475
548,480
549,486
550,494
551,501
552,495
553,484
554,477
555,472
556,471
557,472
558,476
559,483
560,487
561,487
562,484
563,486
564,489
565,491
566,490
567,489
568,487
569,483
570,481
571,487
572,490
573,487
574,488
575,492
576,496
577,501
578,507
579,507
580,504
581,500
582,499
583,500
584,502
585,500
586,499
587,503
588,503
589,503
590,502
591,501
592,501
593,502
594,502
595,497
596,491
597,489
598,483
599,480
600,481
601,484
602,484
603,482
604,483
605,488
606,499
607,514
608,532
609,553
610,571
611,581
612,589
613,594
614,601
615,612
616,623
617,627
618,634
619,651
620,673
621,696
622,719
623,733
624,737
625,733
626,721
627,706
628,695
629,684
630,670
631,657
632,643
633,625
634,605
635,586
636,569
637,550
638,529
639,509
640,489
641,468
642,447
643,422
644,401
645,383
646,367
647,358
648,353
649,351
650,354
651,361
652,368
653,370
654,375
655,381
656,389
657,397
658,403
659,413
660,421
661,430
662,438
663,452
664,463
665,465
666,469
667,472
668,471
669,474
670,477
671,476
672,478
673,480
674,481
675,486
676,488
677,481
678,470
679,470
680,474
681,479
682,484
683,485
684,484
685,481
686,475
687,473
688,476
689,480
690,488
691,492
692,488
693,483
694,478
695,477
696,481
697,487
698,493
699,497
700,499
701,501
702,504
703,508
704,508
705,510
706,511
707,515
708,523
709,524
710,519
711,515
712,512
713,512
714,513
715,514
716,518
717,521
718,519
719,516
720,510
721,509
722,508
723,508
724,511
725,512
726,512
727,517
728,522
729,524
730,525
731,528
732,532
733,537
734,542
735,550
736,553
737,553
738,558
739,559
740,551
741,539
742,528
743,524
744,523
745,526
746,531
747,536
748,542
749,544
750,545
751,548
752,552
753,556
754,558
755,560
756,562
757,566
758,568
759,567
760,565
761,563
762,563
763,560
764,560
765,565
766,577
767,584
768,593
769,603
770,608
771,608
772,607
773,608
774,609
775,611
776,608
777,605
778,603
779,600
780,597
781,595
782,595
783,594
784,588
785,582
786,579
787,581
788,583
789,582
790,582
791,584
792,590
793,595
794,594
795,590
796,585
797,580
798,583
799,587
800,584
801,581
802,583
803,585
804,584
805,583
806,577
807,567
808,562
809,561
810,562
811,559
812,554
813,548
814,548
815,545
816,543
817,541
818,538
819,534
820,531
821,526
822,519
823,515
824,512
825,510
826,511
827,513
828,515
829,514
830,510
831,505
832,500
833,495
834,493
835,493
836,495
837,496
838,489
839,475
840,456
841,436
842,429
843,434
844,448
845,461
846,467
847,472
848,472
849,468
850,465
851,461
852,460
853,461
854,462
855,467
856,472
857,472
858,470
859,467
860,467
861,462
862,451
863,446
864,442
865,438
866,436
867,433
868,428
869,424
870,427
871,432
872,438
873,446
874,452
875,451
876,448
877,440
878,440
879,443
880,444
881,446
882,447
883,447
884,448
885,448
886,445
887,443
888,440
889,437
890,432
891,431
892,436
893,441
894,449
895,457
896,458
897,457
898,455
899,458
900,457
901,458
902,461
903,462
904,459
905,455
906,454
907,457
908,460
909,461
910,461
911,455
912,448
913,442
914,441
915,444
916,446
917,444
918,438
919,436
920,433
921,427
922,425
923,433
924,442
925,454
926,462
927,465
928,470
929,475
930,477
931,481
932,485
933,484
934,482
935,478
936,472
937,465
938,460
939,455
940,452
941,450
942,445
943,444
944,448
945,454
946,455
947,456
948,455
949,456
950,456
951,457
952,460
953,463
954,465
955,466
956,467
957,462
958,453
959,453
960,462
961,468
962,470
963,470
964,468
965,468
966,467
967,465
968,465
969,466
970,467
971,466
972,463
973,462
974,464
975,466
976,464
977,463
978,467
979,473
980,481
981,486
982,487
983,488
984,490
985,491
986,487
987,483
988,480
989,475
990,468
991,463
992,464
993,471
994,476
995,480
996,479
997,478
998,476
999,473
1000,475
1001,478
1002,478
1003,477
1004,482
1005,488
1006,490
1007,493
1008,495
1009,497
1010,499
1011,502
1012,499
1013,494
1014,491
1015,492
1016,489
1017,492
1018,499
1019,503
1020,508
1021,515
1022,517
1023,517
1024,513
1025,506
1026,502
1027,505
1028,512
1029,517
1030,519
1031,518
1032,512
1033,509
1034,509
1035,508
1036,507
1037,502
1038,497
1039,501
1040,504
1041,502
1042,506
1043,510
1044,514
1045,514
1046,514
1047,513
1048,509
1049,502
1050,496
1051,490
1052,487
1053,485
1054,486
1055,489
1056,489
1057,489
1058,489
1059,491
1060,495
1061,497
1062,500
1063,500
1064,500
1065,500
1066,498
1067,496
1068,486
1069,478
1070,476
1071,472
1072,469
1073,465
1074,462
1075,461
1076,459
1077,457
1078,455
1079,450
1080,449
1081,459
1082,470
1083,479
1084,485
1085,492
1086,500
1087,504
1088,507
1089,509
1090,508
1091,508
1092,508
1093,510
1094,507
1095,500
1096,496
1097,490
1098,483
1099,478
1100,473
1101,470
1102,468
1103,468
1104,471
1105,474
1106,480
1107,488
1108,493
1109,494
1110,495
1111,499
1112,500
1113,500
1114,502
1115,502
1116,504
1117,509
1118,517
1119,527
1120,537
1121,550
1122,564
1123,572
1124,579
1125,592
1126,605
1127,622
1128,637
1129,647
1130,656
1131,670
1132,683
1133,690
1134,697
1135,700
1136,695
1137,686
1138,675
1139,664
1140,656
1141,646
1142,635
1143,622
1144,604
1145,582
1146,560
1147,534
1148,506
1149,476
1150,443
1151,419
1152,406
1153,394
1154,380
1155,370
1156,365
1157,361
1158,355
1159,354
1160,356
1161,359
1162,363
1163,364
1164,368
1165,375
1166,383
1167,391
1168,398
1169,403
1170,411
1171,420
1172,433
1173,446
1174,457
1175,461
1176,467
1177,470
1178,471
1179,476
1180,481
1181,481
1182,484
1183,486
1184,488
1185,493
1186,493
1187,487
1188,482
1189,477
1190,479
1191,485
1192,491
1193,499
1194,506
1195,509
1196,507
1197,503
1198,504
1199,507
1200,506
1201,502
1202,496
1203,493
1204,493
1205,498
1206,504
1207,507
1208,506
1209,504
1210,506
1211,510
1212,509
1213,505
1214,506
1215,506
1216,507
1217,511
1218,513
1219,516
1220,519
1221,520
1222,524
1223,524
1224,526
1225,526
1226,527
1227,526
1228,527
1229,525
1230,524
1231,523
1232,516
1233,512
1234,512
1235,514
1236,519
1237,527
1238,536
1239,540
1240,539
1241,540
1242,541
1243,544
1244,543
1245,541
1246,540
1247,540
1248,539
1249,535
1250,535
1251,535
1252,535
1253,536
1254,537
1255,539
1256,540
1257,543
1258,547
1259,548
1260,544
1261,542
1262,539
1263,540
1264,552
1265,563
1266,569
1267,571
1268,569
1269,566
1270,568
1271,571
1272,575
1273,579
1274,581
1275,581
1276,583
1277,586
1278,588
1279,587
1280,586
1281,584
1282,583
1283,585
1284,594
1285,600
1286,606
1287,611
1288,616
1289,622
1290,625
1291,627
1292,621
1293,610
1294,609
1295,609
1296,605
1297,601
1298,593
1299,583
1300,575
1301,574
1302,575
1303,579
1304,584
1305,586
1306,587
1307,587
1308,585
1309,587
1310,590
1311,591
1312,594
1313,597
1314,598
1315,599
1316,599
1317,599
1318,600
1319,600
1320,597
1321,590
1322,582
1323,572
1324,560
1325,552
1326,544
1327,534
1328,527
1329,523
1330,523
1331,521
1332,522
1333,525
1334,526
1335,523
1336,521
1337,515
1338,504
1339,494
1340,493
1341,494
1342,489
1343,484
1344,478
1345,473
1346,469
1347,467
1348,466
1349,468
1350,474
1351,478
1352,480
1353,483
1354,481
1355,474
1356,467
1357,463
1358,460
1359,459
1360,462
1361,462
1362,466
1363,471
1364,475
1365,479
1366,479
1367,474
1368,469
1369,467
1370,466
1371,462
1372,458
1373,456
1374,452
1375,445
1376,443
1377,444
1378,450
1379,451
1380,449
1381,449
1382,449
1383,455
1384,463
1385,470
1386,475
1387,476
1388,471
1389,465
1390,460
1391,454
1392,450
1393,451
1394,449
1395,446
1396,446
1397,450
1398,452
1399,452
1400,457
1401,460
1402,460
1403,461
1404,463
1405,464
1406,458
1407,452
1408,448
1409,449
1410,450
1411,453
1412,461
1413,467
1414,470
1415,467
1416,462
1417,454
1418,445
1419,441
1420,441
1421,444
1422,450
1423,452
1424,453
1425,452
1426,456
1427,462
1428,461
1429,454
1430,450
1431,447
1432,447
1433,452
1434,457
1435,462
1436,463
1437,460
1438,455
1439,455
1440,452
1441,450
1442,454
1443,462
1444,467
1445,470
1446,472
1447,476
1448,482
1449,491
1450,492
1451,483
1452,473
1453,469
1454,470
1455,473
1456,479
1457,480
1458,481
1459,483
1460,482
1461,479
1462,474
1463,468
1464,467
1465,468
1466,472
1467,473
1468,476
1469,479
1470,483
1471,481
1472,473
1473,471
1474,473
1475,472
1476,470
1477,470
1478,469
1479,469
1480,468
1481,469
1482,470
1483,472
1484,476
1485,479
1486,482
1487,483
1488,481
1489,477
1490,476
1491,480
1492,480
1493,479
1494,483
1495,489
1496,490
1497,487
1498,485
1499,486
1500,484
1501,482
1502,476
1503,472
1504,476
1505,481
1506,490
1507,494
1508,492
1509,492
1510,491
1511,493
1512,495
1513,489
1514,485
1515,493
1516,506
1517,518
1518,526
1519,530
1520,531
1521,527
1522,526
1523,524
1524,518
1525,506
1526,497
1527,497
1528,497
1529,499
1530,504
1531,508
1532,510
1533,507
1534,500
1535,497
1536,499
1537,500
1538,497
1539,499
1540,504
1541,507
1542,511
1543,514
1544,515
1545,507
1546,497
1547,493
1548,493
1549,496
1550,500
1551,500
1552,499
1553,495
1554,489
1555,488
1556,489
1557,489
1558,490
1559,495
1560,501
1561,502
1562,498
1563,491
1564,488
1565,484
1566,477
1567,469
1568,468
1569,471
1570,477
1571,490
1572,498
1573,501
1574,500
1575,495
1576,488
1577,485
1578,483
1579,483
1580,486
1581,488
1582,489
1583,491
1584,493
1585,497
1586,497
1587,496
1588,496
1589,495
1590,495
1591,498
1592,499
1593,498
1594,496
1595,497
1596,496
1597,489
1598,486
1599,488
1600,489
1601,492
1602,501
1603,507
1604,507
1605,505
1606,502
1607,500
1608,504
1609,505
1610,506
1611,502
1612,495
1613,485
1614,480
1615,485
1616,490
1617,493
1618,497
1619,500
1620,500
1621,498
1622,497
1623,499
1624,500
1625,504
1626,511
1627,520
1628,531
1629,539
1630,546
1631,558
1632,570
1633,584
1634,599
1635,612
1636,624
1637,638
1638,650
1639,657
1640,667
1641,675
1642,678
1643,676
1644,671
1645,658
1646,640
1647,623
1648,608
1649,591
1650,580
1651,575
1652,568
1653,559
1654,543
1655,526
1656,499
1657,472
1658,445
1659,427
1660,416
1661,411
1662,408
1663,405
1664,403
1665,407
1666,408
1667,403
1668,398
1669,387
1670,380
1671,380
1672,379
1673,382
1674,385
1675,391
1676,398
1677,405
1678,414
1679,424
1680,435
1681,444
1682,449
1683,454
1684,460
1685,464
1686,466
1687,472
1688,474
1689,479
1690,487
1691,491
1692,491
1693,492
1694,494
1695,498
1696,505
1697,508
1698,509
1699,511
1700,514
1701,516
1702,516
1703,513
1704,507
1705,500
1706,499
1707,505
1708,508
1709,514
1710,517
1711,517
1712,518
1713,519
1714,520
1715,522
1716,521
1717,519
1718,516
1719,518
1720,519
1721,517
1722,521
1723,524
1724,523
1725,520
1726,516
1727,517
1728,518
1729,515
1730,516
1731,515
1732,516
1733,515
1734,511
1735,517
1736,528
1737,534
1738,536
1739,532
1740,531
1741,533
1742,535
1743,538
1744,537
1745,533
1746,530
1747,527
1748,525
1749,527
1750,534
1751,538
1752,536
1753,534
1754,532
1755,532
1756,535
1757,535
1758,529
1759,526
1760,531
1761,534
1762,534
1763,539
1764,545
1765,552
1766,554
1767,551
1768,551
1769,554
1770,556
1771,559
1772,563
1773,564
1774,563
1775,562
1776,563
1777,567
1778,564
1779,560
1780,562
1781,565
1782,566
1783,568
1784,576
1785,580
1786,584
1787,585
1788,582
1789,585
1790,591
1791,595
1792,597
1793,601
1794,606
1795,608
1796,609
1797,613
1798,613
1799,611
1800,609
1801,609
1802,611
1803,613
1804,612
1805,608
1806,605
1807,604
1808,604
1809,603
1810,604
1811,606
1812,609
1813,606
1814,595
1815,582
1816,572
1817,571
1818,578
1819,586
1820,591
1821,593
1822,590
1823,586
1824,580
1825,575
1826,565
1827,556
1828,547
1829,543
1830,544
1831,543
1832,541
1833,540
1834,537
1835,532
1836,525
1837,516
1838,511
1839,514
1840,510
1841,508
1842,504
1843,503
1844,501
1845,502
1846,504
1847,505
1848,505
1849,505
1850,505
1851,505
1852,507
1853,512
1854,506
1855,490
1856,474
1857,465
1858,459
1859,452
1860,443
1861,443
1862,451
1863,457
1864,457
1865,456
1866,458
1867,461
1868,463
1869,465
1870,463
1871,454
1872,444
1873,442
1874,444
1875,441
1876,435
1877,432
1878,434
1879,444
1880,461
1881,474
1882,482
1883,483
1884,480
1885,480
1886,479
1887,474
1888,471
1889,467
1890,464
1891,463
1892,462
1893,460
1894,462
1895,461
1896,456
1897,450
1898,454
1899,455
1900,457
1901,461
1902,463
1903,465
1904,465
1905,467
1906,471
1907,473
1908,478
1909,485
1910,486
1911,478
1912,475
1913,477
1914,482
1915,478
1916,476
1917,474
1918,469
1919,464
1920,464
1921,468
1922,471
1923,471
1924,470
1925,472
1926,474
1927,472
1928,468
1929,469
1930,473
1931,473
1932,474
1933,477
1934,472
1935,461
1936,456
1937,455
1938,462
1939,470
1940,473
1941,471
1942,467
1943,462
1944,461
1945,462
1946,463
1947,465
1948,472
1949,477
1950,477
1951,478
1952,480
1953,481
1954,482
1955,483
1956,481
1957,476
1958,466
1959,467
1960,478
1961,483
1962,479
1963,473
1964,468
1965,462
1966,460
1967,462
1968,464
1969,463
1970,461
1971,464
1972,469
1973,471
1974,472
1975,478
1976,483
1977,485
1978,488
1979,490
1980,489
1981,489
1982,482
1983,484
1984,483
1985,479
1986,471
1987,461
1988,463
1989,482
1990,500
1991,509
1992,509
1993,505
1994,494
1995,487
1996,484
1997,485
1998,495
1999,503
