timestamp,signal
0,498
1,493
2,489
3,485
4,480
5,479
6,486
7,492
8,495
9,496
10,493
11,492
12,494
13,495
14,496
15,499
16,502
17,500
18,501
19,500
20,496
21,499
22,500
23,501
24,504
25,502
26,493
27,491
28,492
29,494
30,494
31,495
32,497
33,500
34,505
35,507
36,508
37,510
38,510
39,512
40,513
41,513
42,515
43,515
44,518
45,522
46,522
47,517
48,508
49,497
50,487
51,482
52,481
53,485
54,490
55,491
56,488
57,487
58,487
59,489
60,491
61,495
62,497
63,504
64,510
65,515
66,515
67,513
68,509
69,504
70,502
71,501
72,503
73,510
74,520
75,526
76,518
77,506
78,501
79,505
80,515
81,521
82,529
83,534
84,533
85,534
86,536
87,542
88,544
89,541
90,531
91,515
92,504
93,503
94,506
95,509
96,509
97,508
98,512
99,519
100,523
101,523
102,523
103,520
104,518
105,512
106,510
107,506
108,505
109,506
110,507
111,507
112,504
113,502
114,502
115,502
116,500
117,499
118,497
119,488
120,482
121,478
122,481
123,485
124,492
125,501
126,506
127,510
128,513
129,518
130,522
131,524
132,521
133,520
134,515
135,513
136,518
137,518
138,506
139,497
140,493
141,489
142,486
143,478
144,472
145,477
146,489
147,496
148,496
149,499
150,505
151,510
152,509
153,506
154,501
155,493
156,486
157,484
158,487
159,497
160,503
161,497
162,492
163,490
164,489
165,488
166,489
167,489
168,491
169,491
170,492
171,489
172,487
173,484
174,481
175,478
176,475
177,477
178,480
179,484
180,489
181,489
182,486
183,483
184,481
185,479
186,478
187,479
188,481
189,485
190,498
191,519
192,541
193,562
194,582
195,607
196,627
197,647
198,664
199,680
200,700
201,712
202,720
203,733
204,750
205,763
206,769
207,769
208,766
209,756
210,744
211,735
212,723
213,713
214,697
215,671
216,645
217,623
218,604
219,583
220,560
221,537
222,514
223,488
224,463
225,434
226,406
227,386
228,368
229,355
230,348
231,346
232,350
233,355
234,361
235,364
236,364
237,369
238,376
239,385
240,392
241,397
242,399
243,404
244,413
245,421
246,430
247,438
248,448
249,458
250,464
251,467
252,468
253,474
254,481
255,486
256,484
257,481
258,477
259,472
260,470
261,467
262,463
263,466
264,470
265,476
266,482
267,484
268,486
269,487
270,484
271,479
272,475
273,469
274,463
275,460
276,462
277,467
278,475
279,483
280,492
281,495
282,495
283,497
284,501
285,504
286,501
287,492
288,488
289,487
290,487
291,492
292,500
293,505
294,509
295,506
296,503
297,505
298,508
299,508
300,505
301,498
302,494
303,492
304,492
305,497
306,503
307,505
308,508
309,510
310,515
311,518
312,519
313,520
314,521
315,526
316,535
317,536
318,527
319,519
320,516
321,522
322,529
323,530
324,525
325,520
326,521
327,526
328,530
329,535
330,539
331,542
332,544
333,544
334,546
335,544
336,542
337,539
338,540
339,548
340,556
341,557
342,553
343,551
344,552
345,556
346,561
347,568
348,574
349,576
350,576
351,578
352,580
353,588
354,595
355,597
356,600
357,597
358,593
359,594
360,595
361,593
362,589
363,587
364,582
365,583
366,591
367,603
368,616
369,623
370,627
371,630
372,632
373,633
374,635
375,630
376,623
377,614
378,609
379,599
380,592
381,591
382,590
383,592
384,597
385,604
386,604
387,601
388,596
389,592
390,586
391,579
392,569
393,566
394,567
395,568
396,567
397,564
398,557
399,551
400,543
401,536
402,529
403,532
404,533
405,532
406,528
407,523
408,521
409,520
410,520
411,519
412,517
413,515
414,511
415,507
416,505
417,506
418,505
419,502
420,500
421,498
422,497
423,493
424,483
425,475
426,472
427,467
428,461
429,456
430,451
431,446
432,439
433,433
434,435
435,444
436,451
437,456
438,463
439,467
440,469
441,471
442,472
443,470
444,465
445,466
446,469
447,465
448,460
449,456
450,453
451,454
452,459
453,459
454,455
455,453
456,452
457,450
458,448
459,447
460,446
461,446
462,445
463,446
464,447
465,447
466,450
467,448
468,440
469,431
470,424
471,420
472,416
473,419
474,428
475,440
476,454
477,466
478,468
479,465
480,464
481,467
482,472
483,475
484,472
485,469
486,470
487,471
488,466
489,450
490,433
491,424
492,424
493,430
494,437
495,444
496,448
497,452
498,455
499,458
500,459
501,455
502,455
503,456
504,458
505,455
506,451
507,447
508,447
509,447
510,448
511,450
512,452
513,454
514,457
515,456
516,454
517,458
518,461
519,464
520,467
521,470
522,472
523,474
524,476
525,479
526,481
527,482
528,477
529,467
530,460
531,457
532,457
533,454
534,450
535,451
536,456
537,461
538,462
539,464
540,464
541,465
542,463
543,459
544,458
545,460
546,463
547,470
548,476
549,478
550,478
551,476
552,467
553,456
554,447
555,437
556,434
557,439
558,447
559,458
560,468
561,476
562,481
563,486
564,487
565,487
566,485
567,483
568,480
569,475
570,474
571,472
572,465
573,463
574,461
575,459
576,459
577,465
578,471
579,472
580,472
581,472
582,471
583,475
584,482
585,490
586,495
587,498
588,499
589,496
590,494
591,492
592,491
593,492
594,492
595,492
596,496
597,504
598,508
599,507
600,507
601,502
602,497
603,494
604,491
605,484
606,477
607,472
608,473
609,475
610,477
611,480
612,484
613,485
614,486
615,489
616,489
617,491
618,493
619,495
620,495
621,494
622,493
623,487
624,485
625,491
626,498
627,501
628,497
629,495
630,497
631,500
632,497
633,490
634,490
635,489
636,487
637,487
638,491
639,490
640,492
641,496
642,502
643,504
644,504
645,504
646,504
647,508
648,507
649,507
650,510
651,508
652,503
653,503
654,508
655,511
656,513
657,510
658,507
659,505
660,510
661,516
662,517
663,514
664,508
665,500
666,496
667,493
668,493
669,490
670,483
671,481
672,485
673,492
674,497
675,500
676,502
677,504
678,504
679,498
680,493
681,489
682,495
683,496
684,492
685,487
686,483
687,484
688,488
689,492
690,498
691,503
692,505
693,505
694,504
695,503
696,505
697,500
698,497
699,500
700,500
701,503
702,509
703,516
704,523
705,524
706,520
707,516
708,510
709,503
710,503
711,505
712,504
713,500
714,500
715,502
716,505
717,506
718,509
719,516
720,519
721,515
722,515
723,516
724,515
725,515
726,513
727,513
728,509
729,505
730,505
731,504
732,502
733,499
734,499
735,502
736,503
737,506
738,507
739,512
740,513
741,509
742,502
743,494
744,490
745,491
746,501
747,513
748,517
749,517
750,516
751,511
752,507
753,504
754,500
755,498
756,499
757,504
758,505
759,506
760,507
761,506
762,507
763,509
764,511
765,512
766,513
767,515
768,518
769,519
770,518
771,515
772,510
773,504
774,505
775,511
776,512
777,508
778,505
779,502
780,501
781,497
782,494
783,495
784,500
785,506
786,507
787,506
788,502
789,500
790,498
791,498
792,495
793,492
794,488
795,495
796,502
797,504
798,510
799,513
800,512
801,515
802,523
803,523
804,518
805,512
806,510
807,510
808,515
809,523
810,527
811,528
812,519
813,510
814,503
815,496
816,494
817,494
818,495
819,493
820,493
821,494
822,499
823,506
824,508
825,505
826,499
827,498
828,496
829,487
830,485
831,486
832,493
833,498
834,501
835,505
836,510
837,513
838,515
839,516
840,516
841,516
842,515
843,514
844,514
845,516
846,519
847,519
848,521
849,520
850,514
851,510
852,507
853,505
854,508
855,511
856,513
857,518
858,522
859,521
860,519
861,517
862,516
863,514
864,509
865,507
866,504
867,505
868,504
869,504
870,504
871,503
872,501
873,502
874,506
875,511
876,511
877,507
878,503
879,507
880,508
881,505
882,505
883,510
884,517
885,519
886,519
887,520
888,516
889,506
890,499
891,494
892,494
893,499
894,504
895,507
896,514
897,523
898,526
899,526
900,527
901,529
902,531
903,529
904,528
905,527
906,528
907,527
908,522
909,516
910,511
911,509
912,509
913,509
914,508
915,510
916,512
917,516
918,515
919,510
920,507
921,506
922,507
923,512
924,519
925,520
926,517
927,513
928,514
929,514
930,515
931,515
932,517
933,518
934,514
935,510
936,508
937,504
938,500
939,500
940,499
941,496
942,492
943,489
944,491
945,492
946,492
947,493
948,498
949,504
950,502
951,500
952,499
953,501
954,503
955,504
956,504
957,504
958,504
959,500
960,497
961,497
962,498
963,499
964,503
965,502
966,498
967,491
968,486
969,487
970,489
971,492
972,494
973,492
974,489
975,489
976,491
977,492
978,490
979,483
980,478
981,478
982,477
983,477
984,477
985,477
986,480
987,487
988,497
989,508
990,515
991,520
992,523
993,524
994,524
995,530
996,538
997,547
998,563
999,578
1000,592
1001,607
1002,621
1003,639
1004,662
1005,687
1006,711
1007,730
1008,748
1009,763
1010,766
1011,760
1012,753
1013,744
1014,739
1015,731
1016,720
1017,707
1018,688
1019,668
1020,645
1021,622
1022,595
1023,572
1024,548
1025,526
1026,500
1027,476
1028,454
1029,429
1030,408
1031,385
1032,368
1033,355
1034,349
1035,351
1036,359
1037,367
1038,377
1039,382
1040,382
1041,385
1042,388
1043,392
1044,394
1045,401
1046,412
1047,416
1048,417
1049,416
1050,419
1051,423
1052,431
1053,441
1054,448
1055,448
1056,448
1057,449
1058,455
1059,461
1060,462
1061,460
1062,460
1063,460
1064,462
1065,468
1066,476
1067,482
1068,487
1069,489
1070,493
1071,493
1072,490
1073,486
1074,485
1075,485
1076,485
1077,489
1078,493
1079,497
1080,496
1081,494
1082,493
1083,490
1084,486
1085,484
1086,481
1087,480
1088,483
1089,484
1090,491
1091,499
1092,504
1093,512
1094,519
1095,521
1096,519
1097,518
1098,519
1099,518
1100,516
1101,513
1102,504
1103,495
1104,487
1105,478
1106,477
1107,484
1108,489
1109,499
1110,512
1111,515
1112,508
1113,504
1114,509
1115,514
1116,520
1117,525
1118,527
1119,527
1120,527
1121,527
1122,526
1123,529
1124,534
1125,537
1126,541
1127,542
1128,545
1129,544
1130,542
1131,542
1132,537
1133,531
1134,532
1135,537
1136,538
1137,539
1138,540
1139,535
1140,530
1141,531
1142,532
1143,532
1144,535
1145,540
1146,544
1147,545
1148,545
1149,550
1150,556
1151,563
1152,568
1153,571
1154,574
1155,574
1156,573
1157,574
1158,575
1159,579
1160,585
1161,591
1162,595
1163,595
1164,593
1165,592
1166,591
1167,588
1168,589
1169,593
1170,597
1171,603
1172,602
1173,597
1174,600
1175,603
1176,603
1177,605
1178,605
1179,601
1180,598
1181,594
1182,588
1183,585
1184,580
1185,576
1186,577
1187,582
1188,587
1189,588
1190,591
1191,592
1192,589
1193,584
1194,584
1195,585
1196,584
1197,584
1198,584
1199,584
1200,582
1201,578
1202,574
1203,575
1204,576
1205,573
1206,568
1207,562
1208,555
1209,551
1210,549
1211,547
1212,540
1213,528
1214,525
1215,527
1216,534
1217,535
1218,528
1219,521
1220,515
1221,510
1222,502
1223,496
1224,491
1225,485
1226,484
1227,480
1228,483
1229,485
1230,482
1231,476
1232,471
1233,470
1234,474
1235,473
1236,467
1237,467
1238,473
1239,474
1240,473
1241,471
1242,475
1243,478
1244,476
1245,472
1246,469
1247,462
1248,456
1249,456
1250,457
1251,456
1252,462
1253,467
1254,474
1255,479
1256,478
1257,474
1258,469
1259,465
1260,463
1261,465
1262,468
1263,468
1264,467
1265,467
1266,465
1267,460
1268,459
1269,458
1270,456
1271,455
1272,455
1273,459
1274,462
1275,462
1276,460
1277,460
1278,457
1279,454
1280,456
1281,457
1282,455
1283,451
1284,450
1285,450
1286,459
1287,473
1288,478
1289,480
1290,485
1291,487
1292,483
1293,478
1294,473
1295,467
1296,461
1297,458
1298,456
1299,455
1300,454
1301,453
1302,453
1303,457
1304,461
1305,464
1306,468
1307,462
1308,451
1309,444
1310,442
1311,445
1312,452
1313,456
1314,460
1315,463
1316,463
1317,461
1318,461
1319,464
1320,468
1321,473
1322,475
1323,473
1324,469
1325,467
1326,469
1327,473
1328,476
1329,478
1330,475
1331,470
1332,466
1333,463
1334,461
1335,459
1336,456
1337,455
1338,460
1339,465
1340,468
1341,467
1342,470
1343,471
1344,474
1345,476
1346,475
1347,476
1348,477
1349,476
1350,475
1351,476
1352,480
1353,484
1354,485
1355,482
1356,473
1357,465
1358,462
1359,459
1360,456
1361,454
1362,452
1363,449
1364,449
1365,452
1366,462
1367,473
1368,476
1369,478
1370,485
1371,487
1372,484
1373,481
1374,479
1375,478
1376,480
1377,480
1378,477
1379,473
1380,471
1381,472
1382,476
1383,483
1384,486
1385,483
1386,478
1387,472
1388,469
1389,471
1390,474
1391,478
1392,484
1393,485
1394,481
1395,484
1396,488
1397,489
1398,488
1399,491
1400,491
1401,483
1402,480
1403,481
1404,481
1405,483
1406,485
1407,487
1408,489
1409,492
1410,491
1411,488
1412,489
1413,493
1414,499
1415,506
1416,507
1417,507
1418,505
1419,502
1420,500
1421,500
1422,502
1423,508
1424,508
1425,500
1426,493
1427,493
1428,495
1429,500
1430,505
1431,509
1432,508
1433,502
1434,487
1435,471
1436,460
1437,467
1438,472
1439,472
1440,473
1441,478
1442,479
1443,483
1444,486
1445,489
1446,494
1447,504
1448,510
1449,512
1450,511
1451,508
1452,504
1453,502
1454,498
1455,492
1456,489
1457,489
1458,493
1459,498
1460,503
1461,508
1462,510
1463,510
1464,510
1465,508
1466,506
1467,504
1468,500
1469,501
1470,503
1471,504
1472,506
1473,507
1474,504
1475,503
1476,503
1477,506
1478,511
1479,515
1480,513
1481,507
1482,501
1483,502
1484,505
1485,505
1486,502
1487,496
1488,490
1489,492
1490,496
1491,497
1492,496
1493,499
1494,507
1495,512
1496,513
1497,515
1498,519
1499,527
1500,534
1501,538
1502,539
1503,537
1504,531
1505,525
1506,515
1507,510
1508,508
1509,508
1510,514
1511,518
1512,518
1513,520
1514,522
1515,525
1516,529
1517,529
1518,526
1519,525
1520,525
1521,523
1522,521
1523,521
1524,522
1525,522
1526,519
1527,521
1528,523
1529,522
1530,520
1531,519
1532,520
1533,521
1534,524
1535,526
1536,526
1537,525
1538,520
1539,516
1540,513
1541,517
1542,524
1543,523
1544,515
1545,507
1546,504
1547,505
1548,507
1549,505
1550,499
1551,494
1552,488
1553,483
1554,481
1555,482
1556,485
1557,488
1558,490
1559,497
1560,509
1561,515
1562,515
1563,515
1564,515
1565,511
1566,504
1567,502
1568,498
1569,502
1570,510
1571,515
1572,519
1573,521
1574,521
1575,522
1576,521
1577,520
1578,522
1579,522
1580,519
1581,508
1582,496
1583,491
1584,486
1585,480
1586,478
1587,479
1588,483
1589,491
1590,501
1591,502
1592,500
1593,499
1594,498
1595,498
1596,499
1597,495
1598,489
1599,483
1600,478
1601,479
1602,485
1603,489
1604,488
1605,492
1606,499
1607,512
1608,530
1609,545
1610,563
1611,588
1612,603
1613,611
1614,615
1615,621
1616,629
1617,636
1618,647
1619,655
1620,671
1621,688
1622,691
1623,690
1624,688
1625,683
1626,679
1627,671
1628,663
1629,652
1630,635
1631,615
1632,594
1633,578
1634,566
1635,553
1636,536
1637,518
1638,499
1639,478
1640,461
1641,445
1642,432
1643,419
1644,403
1645,387
1646,374
1647,368
1648,368
1649,371
1650,374
1651,377
1652,383
1653,392
1654,401
1655,409
1656,417
1657,425
1658,433
1659,438
1660,439
1661,441
1662,443
1663,449
1664,461
1665,469
1666,471
1667,473
1668,471
1669,470
1670,478
1671,482
1672,484
1673,484
1674,479
1675,472
1676,472
1677,479
1678,494
1679,507
1680,511
1681,511
1682,510
1683,510
1684,507
1685,508
1686,510
1687,509
1688,505
1689,504
1690,502
1691,504
1692,508
1693,513
1694,513
1695,507
1696,502
1697,499
1698,496
1699,500
1700,508
1701,509
1702,507
1703,505
1704,509
1705,515
1706,519
1707,524
1708,524
1709,525
1710,527
1711,527
1712,526
1713,527
1714,527
1715,527
1716,528
1717,528
1718,530
1719,532
1720,532
1721,527
1722,521
1723,516
1724,512
1725,509
1726,514
1727,521
1728,522
1729,519
1730,518
1731,517
1732,519
1733,518
1734,520
1735,525
1736,529
1737,529
1738,532
1739,531
1740,531
1741,530
1742,527
1743,527
1744,533
1745,538
1746,539
1747,547
1748,551
1749,545
1750,541
1751,539
1752,537
1753,535
1754,534
1755,536
1756,535
1757,532
1758,538
1759,550
1760,560
1761,567
1762,571
1763,574
1764,578
1765,578
1766,577
1767,578
1768,576
1769,575
1770,576
1771,583
1772,592
1773,594
1774,598
1775,599
1776,598
1777,598
1778,596
1779,594
1780,597
1781,604
1782,606
1783,607
1784,611
1785,619
1786,627
1787,627
1788,626
1789,619
1790,615
1791,617
1792,616
1793,612
1794,607
1795,607
1796,605
1797,603
1798,593
1799,585
1800,582
1801,583
1802,583
1803,585
1804,588
1805,592
1806,592
1807,587
1808,581
1809,574
1810,567
1811,562
1812,561
1813,557
1814,553
1815,551
1816,550
1817,545
1818,541
1819,542
1820,543
1821,544
1822,543
1823,542
1824,539
1825,530
1826,516
1827,508
1828,511
1829,508
1830,506
1831,506
1832,507
1833,512
1834,518
1835,518
1836,512
1837,506
1838,495
1839,486
1840,480
1841,475
1842,470
1843,462
1844,455
1845,449
1846,447
1847,449
1848,453
1849,453
1850,455
1851,460
1852,464
1853,466
1854,467
1855,468
1856,468
1857,466
1858,460
1859,450
1860,443
1861,444
1862,440
1863,433
1864,433
1865,432
1866,427
1867,423
1868,425
1869,433
1870,439
1871,446
1872,459
1873,469
1874,475
1875,479
1876,481
1877,474
1878,464
1879,459
1880,457
1881,459
1882,459
1883,460
1884,460
1885,460
1886,459
1887,460
1888,467
1889,474
1890,478
1891,478
1892,476
1893,470
1894,463
1895,455
1896,450
1897,448
1898,450
1899,450
1900,446
1901,444
1902,443
1903,439
1904,437
1905,442
1906,452
1907,462
1908,468
1909,472
1910,472
1911,473
1912,469
1913,463
1914,461
1915,459
1916,455
1917,449
1918,452
1919,462
1920,472
1921,480
1922,487
1923,487
1924,481
1925,478
1926,478
1927,480
1928,484
1929,487
1930,486
1931,480
1932,473
1933,469
1934,467
1935,469
1936,469
1937,468
1938,473
1939,476
1940,470
1941,465
1942,464
1943,465
1944,467
1945,469
1946,471
1947,471
1948,466
1949,463
1950,459
1951,454
1952,448
1953,446
1954,447
1955,456
1956,467
1957,477
1958,482
1959,486
1960,492
1961,497
1962,498
1963,500
1964,500
1965,500
1966,498
1967,494
1968,491
1969,488
1970,489
1971,487
1972,480
1973,476
1974,473
1975,473
1976,468
1977,460
1978,460
1979,464
1980,474
1981,480
1982,485
1983,487
1984,487
1985,487
1986,483
1987,478
1988,476
1989,476
1990,475
1991,477
1992,482
1993,488
1994,487
1995,483
1996,478
1997,475
1998,470
1999,468
