timestamp,signal
0,457
1,458
2,461
3,460
4,456
5,448
6,443
7,442
8,440
9,436
10,434
11,429
12,427
13,426
14,426
15,426
16,431
17,437
18,447
19,455
20,455
21,454
22,455
23,454
24,453
25,451
26,449
27,450
28,455
29,460
30,463
31,464
32,465
33,465
34,464
35,470
36,477
37,478
38,476
39,472
40,468
41,463
42,458
43,458
44,464
45,470
46,480
47,490
48,494
49,492
50,487
51,486
52,482
53,472
54,464
55,459
56,454
57,451
58,453
59,457
60,463
61,469
62,477
63,481
64,480
65,478
66,472
67,464
68,462
69,459
70,455
71,453
72,454
73,454
74,455
75,454
76,450
77,455
78,463
79,467
80,469
81,472
82,476
83,481
84,487
85,489
86,488
87,481
88,468
89,457
90,452
91,449
92,448
93,449
94,451
95,447
96,444
97,441
98,437
99,435
100,434
101,435
102,441
103,451
104,459
105,465
106,467
107,466
108,472
109,481
110,486
111,488
112,490
113,487
114,483
115,483
116,483
117,476
118,472
119,466
120,460
121,455
122,454
123,456
124,459
125,461
126,466
127,470
128,476
129,483
130,484
131,481
132,479
133,476
134,477
135,477
136,479
137,478
138,478
139,480
140,483
141,485
142,487
143,491
144,495
145,495
146,492
147,493
148,495
149,501
150,505
151,505
152,507
153,500
154,492
155,485
156,481
157,479
158,471
159,464
160,463
161,468
162,469
163,466
164,465
165,470
166,478
167,478
168,476
169,476
170,481
171,489
172,498
173,505
174,508
175,505
176,501
177,499
178,498
179,500
180,508
181,516
182,522
183,523
184,521
185,521
186,524
187,519
188,516
189,517
190,515
191,511
192,507
193,506
194,504
195,504
196,512
197,523
198,528
199,529
200,522
201,512
202,505
203,499
204,494
205,490
206,488
207,486
208,484
209,486
210,489
211,489
212,490
213,494
214,498
215,505
216,510
217,513
218,515
219,509
220,500
221,496
222,492
223,488
224,485
225,485
226,484
227,480
228,476
229,473
230,472
231,470
232,465
233,461
234,460
235,459
236,462
237,470
238,480
239,483
240,487
241,495
242,499
243,504
244,509
245,512
246,515
247,515
248,515
249,517
250,517
251,510
252,501
253,489
254,479
255,470
256,462
257,460
258,459
259,463
260,467
261,471
262,472
263,472
264,474
265,481
266,485
267,487
268,491
269,499
270,513
271,528
272,538
273,547
274,556
275,565
276,575
277,584
278,591
279,601
280,608
281,612
282,624
283,641
284,655
285,668
286,678
287,684
288,688
289,690
290,686
291,685
292,687
293,685
294,680
295,668
296,651
297,632
298,617
299,603
300,588
301,572
302,553
303,534
304,511
305,487
306,469
307,455
308,439
309,426
310,416
311,405
312,397
313,395
314,394
315,391
316,388
317,389
318,393
319,394
320,395
321,397
322,399
323,402
324,404
325,409
326,415
327,422
328,428
329,428
330,426
331,429
332,433
333,438
334,442
335,448
336,461
337,478
338,491
339,497
340,500
341,497
342,494
343,489
344,487
345,487
346,492
347,497
348,504
349,505
350,502
351,503
352,508
353,511
354,511
355,512
356,512
357,509
358,500
359,483
360,473
361,471
362,472
363,477
364,486
365,495
366,500
367,504
368,506
369,510
370,509
371,506
372,503
373,502
374,499
375,496
376,498
377,503
378,505
379,509
380,514
381,517
382,519
383,521
384,523
385,531
386,533
387,530
388,524
389,519
390,516
391,514
392,511
393,508
394,505
395,506
396,508
397,512
398,516
399,517
400,519
401,519
402,518
403,519
404,520
405,520
406,519
407,522
408,524
409,526
410,529
411,534
412,539
413,543
414,548
415,552
416,556
417,556
418,551
419,547
420,546
421,543
422,540
423,537
424,537
425,541
426,548
427,559
428,569
429,579
430,582
431,582
432,585
433,584
434,580
435,575
436,574
437,577
438,580
439,582
440,583
441,581
442,581
443,583
444,582
445,582
446,583
447,583
448,585
449,583
450,578
451,575
452,574
453,575
454,582
455,590
456,595
457,595
458,590
459,590
460,591
461,595
462,601
463,603
464,604
465,605
466,602
467,594
468,583
469,570
470,560
471,556
472,554
473,555
474,557
475,560
476,564
477,564
478,563
479,563
480,563
481,560
482,558
483,553
484,546
485,537
486,534
487,535
488,534
489,529
490,525
491,523
492,521
493,520
494,520
495,519
496,518
497,520
498,520
499,519
500,519
501,518
502,519
503,522
504,521
505,515
506,506
507,496
508,486
509,479
510,477
511,477
512,476
513,474
514,474
515,469
516,466
517,468
518,468
519,467
520,467
521,468
522,468
523,467
524,467
525,464
526,462
527,460
528,461
529,461
530,460
531,458
532,456
533,454
534,450
535,446
536,445
537,442
538,437
539,436
540,440
541,448
542,457
543,458
544,452
545,447
546,444
547,443
548,441
549,437
550,433
551,428
552,429
553,431
554,440
555,457
556,471
557,475
558,475
559,478
560,481
561,480
562,479
563,480
564,481
565,483
566,477
567,472
568,470
569,472
570,471
571,470
572,467
573,460
574,458
575,465
576,470
577,475
578,474
579,470
580,468
581,467
582,466
583,466
584,467
585,470
586,469
587,468
588,467
589,467
590,465
591,465
592,466
593,468
594,475
595,481
596,486
597,489
598,493
599,495
600,494
601,493
602,494
603,492
604,488
605,488
606,488
607,481
608,467
609,461
610,459
611,455
612,451
613,451
614,454
615,460
616,469
617,479
618,488
619,490
620,490
621,484
622,481
623,483
624,479
625,477
626,473
627,467
628,459
629,457
630,466
631,472
632,472
633,472
634,473
635,476
636,476
637,479
638,478
639,476
640,478
641,480
642,478
643,471
644,468
645,469
646,468
647,467
648,467
649,468
650,471
651,479
652,486
653,487
654,485
655,486
656,491
657,492
658,492
659,490
660,487
661,492
662,496
663,496
664,497
665,499
666,499
667,499
668,500
669,500
670,501
671,500
672,504
673,507
674,504
675,508
676,511
677,512
678,511
679,509
680,508
681,508
682,507
683,500
684,492
685,486
686,486
687,491
688,497
689,499
690,497
691,491
692,484
693,484
694,487
695,493
696,496
697,494
698,491
699,493
700,496
701,500
702,502
703,505
704,509
705,515
706,522
707,526
708,523
709,520
710,521
711,523
712,523
713,526
714,521
715,512
716,507
717,505
718,501
719,495
720,490
721,488
722,485
723,481
724,477
725,473
726,471
727,472
728,475
729,478
730,480
731,485
732,492
733,496
734,494
735,493
736,495
737,496
738,492
739,488
740,487
741,485
742,487
743,491
744,496
745,501
746,504
747,510
748,515
749,521
750,522
751,521
752,516
753,508
754,502
755,502
756,506
757,507
758,501
759,494
760,488
761,481
762,476
763,479
764,485
765,490
766,492
767,488
768,487
769,487
770,484
771,483
772,482
773,484
774,484
775,481
776,480
777,482
778,487
779,489
780,496
781,498
782,495
783,490
784,483
785,481
786,481
787,493
788,508
789,523
790,529
791,535
792,544
793,551
794,559
795,573
796,585
797,592
798,598
799,609
800,628
801,645
802,662
803,679
804,696
805,705
806,711
807,715
808,714
809,716
810,717
811,708
812,695
813,686
814,678
815,666
816,653
817,643
818,630
819,616
820,601
821,583
822,566
823,548
824,527
825,503
826,480
827,455
828,428
829,407
830,393
831,384
832,377
833,373
834,368
835,367
836,369
837,374
838,381
839,388
840,396
841,405
842,415
843,423
844,433
845,446
846,454
847,460
848,463
849,465
850,467
851,465
852,461
853,449
854,441
855,441
856,439
857,439
858,450
859,462
860,469
861,474
862,478
863,481
864,484
865,485
866,485
867,486
868,486
869,489
870,490
871,492
872,494
873,496
874,499
875,500
876,499
877,497
878,493
879,487
880,487
881,489
882,489
883,487
884,487
885,490
886,492
887,494
888,495
889,496
890,492
891,484
892,479
893,480
894,484
895,493
896,500
897,505
898,508
899,507
900,506
901,504
902,501
903,499
904,504
905,508
906,509
907,512
908,512
909,510
910,508
911,508
912,511
913,518
914,523
915,524
916,521
917,518
918,516
919,515
920,517
921,519
922,519
923,519
924,524
925,525
926,523
927,528
928,533
929,534
930,536
931,538
932,542
933,542
934,541
935,536
936,531
937,529
938,527
939,528
940,530
941,540
942,551
943,561
944,571
945,578
946,582
947,581
948,575
949,571
950,566
951,563
952,563
953,563
954,560
955,558
956,562
957,568
958,571
959,568
960,564
961,563
962,565
963,566
964,569
965,576
966,581
967,582
968,585
969,591
970,593
971,594
972,596
973,599
974,603
975,606
976,612
977,618
978,621
979,619
980,615
981,614
982,607
983,597
984,595
985,595
986,593
987,592
988,591
989,588
990,588
991,592
992,595
993,593
994,588
995,580
996,573
997,568
998,556
999,546
1000,543
1001,541
1002,538
1003,539
1004,538
1005,537
1006,532
1007,529
1008,531
1009,532
1010,539
1011,542
1012,544
1013,543
1014,539
1015,538
1016,537
1017,538
1018,541
1019,538
1020,524
1021,504
1022,494
1023,492
1024,489
1025,484
1026,480
1027,479
1028,480
1029,476
1030,476
1031,479
1032,480
1033,483
1034,483
1035,480
1036,471
1037,460
1038,453
1039,454
1040,456
1041,459
1042,463
1043,470
1044,473
1045,475
1046,473
1047,471
1048,467
1049,463
1050,462
1051,458
1052,456
1053,458
1054,460
1055,463
1056,467
1057,471
1058,468
1059,467
1060,465
1061,462
1062,462
1063,465
1064,467
1065,464
1066,462
1067,466
1068,473
1069,480
1070,485
1071,480
1072,470
1073,460
1074,454
1075,454
1076,452
1077,450
1078,453
1079,454
1080,459
1081,460
1082,460
1083,462
1084,464
1085,465
1086,462
1087,457
1088,453
1089,452
1090,455
1091,457
1092,460
1093,464
1094,465
1095,465
1096,462
1097,462
1098,465
1099,472
1100,476
1101,475
1102,468
1103,465
1104,466
1105,470
1106,469
1107,464
1108,461
1109,459
1110,460
1111,460
1112,456
1113,454
1114,456
1115,457
1116,455
1117,449
1118,446
1119,448
1120,449
1121,451
1122,451
1123,453
1124,454
1125,454
1126,452
1127,448
1128,453
1129,463
1130,475
1131,483
1132,487
1133,487
1134,489
1135,489
1136,490
1137,494
1138,488
1139,481
1140,476
1141,470
1142,467
1143,465
1144,463
1145,463
1146,467
1147,473
1148,479
1149,483
1150,487
1151,485
1152,479
1153,473
1154,468
1155,465
1156,461
1157,461
1158,462
1159,462
1160,460
1161,462
1162,468
1163,475
1164,479
1165,483
1166,487
1167,489
1168,489
1169,486
1170,487
1171,492
1172,494
1173,493
1174,491
1175,487
1176,485
1177,482
1178,482
1179,483
1180,487
1181,491
1182,490
1183,489
1184,493
1185,494
1186,492
1187,491
1188,491
1189,489
1190,487
1191,487
1192,489
1193,492
1194,496
1195,499
1196,500
1197,501
1198,503
1199,507
1200,511
1201,513
1202,512
1203,512
1204,510
1205,509
1206,504
1207,502
1208,497
1209,483
1210,477
1211,479
1212,483
1213,487
1214,493
1215,500
1216,508
1217,519
1218,529
1219,529
1220,526
1221,522
1222,516
1223,511
1224,507
1225,503
1226,501
1227,500
1228,499
1229,500
1230,504
1231,508
1232,512
1233,514
1234,514
1235,512
1236,508
1237,503
1238,501
1239,496
1240,488
1241,483
1242,482
1243,486
1244,496
1245,504
1246,508
1247,513
1248,513
1249,512
1250,514
1251,518
1252,516
1253,510
1254,505
1255,501
1256,497
1257,492
1258,487
1259,483
1260,483
1261,483
1262,486
1263,483
1264,479
1265,480
1266,483
1267,484
1268,484
1269,482
1270,485
1271,491
1272,492
1273,492
1274,493
1275,496
1276,501
1277,501
1278,499
1279,501
1280,509
1281,514
1282,514
1283,509
1284,510
1285,508
1286,504
1287,502
1288,502
1289,506
1290,512
1291,512
1292,506
1293,501
1294,498
1295,491
1296,492
1297,498
1298,497
1299,497
1300,494
1301,491
1302,486
1303,480
1304,477
1305,473
1306,473
1307,473
1308,475
1309,478
1310,481
1311,480
1312,480
1313,484
1314,489
1315,496
1316,505
1317,514
1318,523
1319,535
1320,550
1321,568
1322,592
1323,616
1324,632
1325,646
1326,663
1327,683
1328,704
1329,722
1330,737
1331,748
1332,756
1333,764
1334,772
1335,775
1336,773
1337,769
1338,764
1339,759
1340,749
1341,733
1342,716
1343,689
1344,665
1345,641
1346,614
1347,588
1348,561
1349,539
1350,516
1351,492
1352,467
1353,441
1354,412
1355,385
1356,364
1357,349
1358,343
1359,339
1360,339
1361,340
1362,347
1363,354
1364,358
1365,361
1366,363
1367,363
1368,367
1369,377
1370,386
1371,395
1372,409
1373,425
1374,438
1375,455
1376,468
1377,480
1378,490
1379,492
1380,490
1381,487
1382,487
1383,484
1384,480
1385,479
1386,477
1387,473
1388,470
1389,462
1390,457
1391,452
1392,452
1393,460
1394,467
1395,472
1396,475
1397,478
1398,482
1399,484
1400,483
1401,483
1402,483
1403,484
1404,490
1405,497
1406,502
1407,503
1408,499
1409,495
1410,495
1411,496
1412,496
1413,492
1414,490
1415,492
1416,496
1417,497
1418,497
1419,497
1420,499
1421,500
1422,501
1423,501
1424,499
1425,498
1426,498
1427,505
1428,509
1429,511
1430,515
1431,516
1432,515
1433,512
1434,511
1435,511
1436,516
1437,518
1438,517
1439,516
1440,512
1441,508
1442,512
1443,513
1444,512
1445,514
1446,515
1447,518
1448,521
1449,524
1450,527
1451,526
1452,525
1453,528
1454,533
1455,539
1456,546
1457,553
1458,553
1459,550
1460,548
1461,545
1462,545
1463,548
1464,550
1465,551
1466,554
1467,562
1468,568
1469,567
1470,563
1471,560
1472,558
1473,555
1474,556
1475,561
1476,566
1477,573
1478,579
1479,583
1480,581
1481,578
1482,578
1483,578
1484,577
1485,578
1486,580
1487,583
1488,588
1489,595
1490,605
1491,611
1492,614
1493,612
1494,608
1495,606
1496,604
1497,601
1498,599
1499,599
1500,600
1501,603
1502,606
1503,607
1504,608
1505,608
1506,611
1507,611
1508,612
1509,612
1510,611
1511,611
1512,609
1513,610
1514,614
1515,620
1516,620
1517,616
1518,611
1519,607
1520,603
1521,600
1522,598
1523,598
1524,595
1525,591
1526,585
1527,577
1528,568
1529,559
1530,554
1531,550
1532,547
1533,547
1534,545
1535,543
1536,543
1537,543
1538,544
1539,543
1540,538
1541,533
1542,529
1543,525
1544,520
1545,516
1546,514
1547,510
1548,499
1549,486
1550,472
1551,460
1552,456
1553,453
1554,450
1555,450
1556,453
1557,460
1558,466
1559,477
1560,488
1561,496
1562,499
1563,496
1564,489
1565,484
1566,484
1567,476
1568,472
1569,475
1570,485
1571,488
1572,483
1573,475
1574,467
1575,460
1576,456
1577,456
1578,458
1579,459
1580,460
1581,460
1582,457
1583,457
1584,457
1585,455
1586,454
1587,452
1588,449
1589,448
1590,451
1591,458
1592,464
1593,466
1594,465
1595,464
1596,465
1597,462
1598,457
1599,453
1600,452
1601,455
1602,455
1603,454
1604,453
1605,450
1606,447
1607,445
1608,446
1609,448
1610,451
1611,454
1612,452
1613,447
1614,446
1615,449
1616,453
1617,455
1618,455
1619,451
1620,447
1621,446
1622,447
1623,446
1624,444
1625,444
1626,443
1627,444
1628,446
1629,445
1630,445
1631,449
1632,454
1633,454
1634,455
1635,458
1636,463
1637,470
1638,473
1639,471
1640,467
1641,464
1642,460
1643,454
1644,451
1645,452
1646,454
1647,454
1648,451
1649,448
1650,442
1651,435
1652,432
1653,430
1654,433
1655,440
1656,447
1657,453
1658,459
1659,461
1660,461
1661,466
1662,472
1663,476
1664,476
1665,473
1666,468
1667,464
1668,459
1669,455
1670,457
1671,460
1672,463
1673,467
1674,472
1675,471
1676,468
1677,463
1678,459
1679,458
1680,460
1681,461
1682,462
1683,462
1684,463
1685,465
1686,467
1687,470
1688,473
1689,478
1690,480
1691,481
1692,479
1693,479
1694,478
1695,479
1696,481
1697,483
1698,485
1699,485
1700,481
1701,476
1702,471
1703,468
1704,463
1705,461
1706,463
1707,467
1708,470
1709,471
1710,474
1711,473
1712,475
1713,475
1714,474
1715,476
1716,481
1717,487
1718,495
1719,502
1720,506
1721,508
1722,506
1723,504
1724,506
1725,509
1726,510
1727,508
1728,504
1729,502
1730,501
1731,498
1732,496
1733,493
1734,491
1735,491
1736,493
1737,493
1738,491
1739,492
1740,496
1741,497
1742,497
1743,498
1744,498
1745,503
1746,509
1747,514
1748,519
1749,516
1750,504
1751,491
1752,485
1753,481
1754,484
1755,490
1756,492
1757,490
1758,488
1759,488
1760,488
1761,488
1762,493
1763,500
1764,507
1765,516
1766,521
1767,517
1768,513
1769,511
1770,511
1771,514
1772,515
1773,515
1774,515
1775,516
1776,517
1777,518
1778,519
1779,519
1780,518
1781,514
1782,511
1783,505
1784,502
1785,498
1786,493
1787,487
1788,486
1789,486
1790,491
1791,496
1792,497
1793,495
1794,493
1795,492
1796,494
1797,496
1798,495
1799,494
1800,494
1801,494
1802,495
1803,496
1804,494
1805,493
1806,494
1807,495
1808,494
1809,491
1810,488
1811,484
1812,484
1813,491
1814,499
1815,501
1816,501
1817,501
1818,502
1819,501
1820,496
1821,490
1822,486
1823,483
1824,480
1825,480
1826,480
1827,479
1828,480
1829,483
1830,487
1831,490
1832,491
1833,488
1834,485
1835,481
1836,478
1837,477
1838,473
1839,475
1840,478
1841,481
1842,483
1843,480
1844,479
1845,482
1846,489
1847,496
1848,500
1849,499
1850,497
1851,493
1852,492
1853,492
1854,492
1855,490
1856,491
1857,493
1858,497
1859,503
1860,510
1861,518
1862,529
1863,541
1864,552
1865,562
1866,570
1867,576
1868,583
1869,589
1870,600
1871,616
1872,634
1873,651
1874,670
1875,692
1876,713
1877,729
1878,739
1879,744
1880,749
1881,747
1882,739
1883,728
1884,716
1885,706
1886,688
1887,667
1888,647
1889,629
1890,609
1891,586
1892,560
1893,537
1894,519
1895,496
1896,470
1897,448
1898,427
1899,406
1900,391
1901,382
1902,374
1903,367
1904,357
1905,347
1906,337
1907,335
1908,340
1909,345
1910,351
1911,361
1912,372
1913,386
1914,399
1915,406
1916,412
1917,420
1918,427
1919,432
1920,439
1921,444
1922,447
1923,448
1924,449
1925,452
1926,459
1927,469
1928,475
1929,480
1930,484
1931,486
1932,484
1933,482
1934,481
1935,482
1936,483
1937,481
1938,478
1939,474
1940,471
1941,470
1942,472
1943,475
1944,475
1945,476
1946,477
1947,477
1948,478
1949,480
1950,481
1951,483
1952,487
1953,490
1954,490
1955,492
1956,495
1957,496
1958,497
1959,497
1960,494
1961,492
1962,493
1963,497
1964,504
1965,509
1966,511
1967,513
1968,516
1969,521
1970,524
1971,524
1972,524
1973,524
1974,516
1975,510
1976,505
1977,503
1978,496
1979,497
1980,504
1981,506
1982,504
1983,504
1984,504
1985,512
1986,521
1987,527
1988,530
1989,533
1990,536
1991,536
1992,530
1993,526
1994,531
1995,536
1996,532
1997,529
1998,527
1999,527
