# OpenSignals Text File Format. Version 1
# {"98:D3:51:FD:71:01": {"position": 0, "device": "bitalino_rev", "device name": "98:D3:51:FD:71:01", "device connection": "BTH98:D3:51:FD:71:01", "sampling rate": 1000, "resolution": [4, 1, 1, 1, 1, 10, 10, 10, 10, 6, 6], "firmware version": 1282, "comments": "", "keywords": "", "mode": 0, "sync interval": 2, "date": "2024-4-19", "time": "12:15:18.104", "channels": [1, 2, 3, 4, 5, 6], "sensor": ["RAW", "RAW", "RAW", "RAW", "RAW", "RAW"], "label": ["A1", "A2", "A3", "A4", "A5", "A6"], "column": ["nSeq", "I1", "I2", "O1", "O2", "A1", "A2", "A3", "A4", "A5", "A6"], "special": [{}, {}, {}, {}, {}, {}], "digital IO": [0, 0, 1, 1]}}
# EndOfHeader
0	0	0	0	0	512	504	0	501	39	8	
1	0	0	0	0	508	504	0	504	39	8	
2	0	0	0	0	507	504	0	508	39	8	
3	0	0	0	0	496	504	0	507	39	8	
4	0	0	0	0	510	504	0	507	39	8	
5	0	0	0	0	510	504	0	505	39	7	
6	0	0	0	0	508	504	0	506	39	8	
7	0	0	0	0	508	504	0	506	39	8	
8	0	0	0	0	504	504	0	506	39	8	
9	0	0	0	0	509	504	0	507	39	8	
10	0	0	0	0	506	504	0	502	39	8	
11	0	0	0	0	505	504	0	503	39	8	
12	0	0	0	0	505	503	0	505	39	8	
13	0	0	0	0	515	504	0	512	39	8	
14	0	0	0	0	508	504	0	511	39	8	
15	0	0	0	0	507	504	0	509	39	8	
0	0	0	0	0	508	504	0	503	39	8	
1	0	0	0	0	512	504	0	503	39	8	
2	0	0	0	0	504	504	0	497	39	8	
3	0	0	0	0	508	504	0	497	39	8	
4	0	0	0	0	510	504	0	494	38	8	
5	0	0	0	0	503	504	0	495	39	8	
6	0	0	0	0	503	504	0	493	39	8	
7	0	0	0	0	508	504	0	494	39	8	
8	0	0	0	0	504	504	0	492	38	8	
9	0	0	0	0	501	505	0	493	38	8	
10	0	0	0	0	511	504	0	491	39	8	
11	0	0	0	0	508	505	0	492	39	8	
12	0	0	0	0	512	505	0	489	39	8	
13	0	0	0	0	514	505	0	491	39	8	
14	0	0	0	0	507	505	0	487	38	8	
15	0	0	0	0	512	505	0	489	39	8	
0	0	0	0	0	505	504	0	487	39	8	
1	0	0	0	0	505	504	0	488	39	8	
2	0	0	0	0	516	505	0	487	39	8	
3	0	0	0	0	504	505	0	488	39	8	
4	0	0	0	0	508	504	0	485	39	8	
5	0	0	0	0	499	504	0	495	39	8	
6	0	0	0	0	501	504	0	510	39	8	
7	0	0	0	0	507	504	0	535	39	8	
8	0	0	0	0	514	505	0	546	39	8	
9	0	0	0	0	511	505	0	554	39	8	
10	0	0	0	0	508	505	0	568	39	8	
11	0	0	0	0	502	505	0	566	39	8	
12	0	0	0	0	508	505	0	569	39	8	
13	0	0	0	0	507	505	0	583	39	8	
14	0	0	0	0	504	505	0	560	39	8	
15	0	0	0	0	507	505	0	565	39	8	
0	0	0	0	0	510	504	0	553	39	8	
1	0	0	0	0	509	504	0	558	39	8	
2	0	0	0	0	511	503	0	558	39	8	
3	0	0	0	0	508	504	0	555	38	8	
4	0	0	0	0	503	504	0	543	39	8	
5	0	0	0	0	504	504	0	530	38	8	
6	0	0	0	0	513	504	0	514	39	8	
7	0	0	0	0	508	504	0	504	38	8	
8	0	0	0	0	505	504	0	494	39	8	
9	0	0	0	0	502	504	0	487	38	8	
10	0	0	0	0	516	505	0	479	39	8	
11	0	0	0	0	511	504	0	476	38	8	
12	0	0	0	0	512	505	0	473	38	8	
13	0	0	0	0	511	504	0	473	39	8	
14	0	0	0	0	505	504	0	473	38	8	
15	0	0	0	0	504	504	0	474	38	8	
0	0	0	0	0	502	504	0	470	39	8	
1	0	0	0	0	504	504	0	468	38	8	
2	0	0	0	0	507	505	0	469	39	8	
3	0	0	0	0	511	505	0	470	39	8	
4	0	0	0	0	508	505	0	475	39	8	
5	0	0	0	0	509	504	0	473	39	8	
6	0	0	0	0	506	505	0	474	39	8	
7	0	0	0	0	512	504	0	470	39	8	
8	0	0	0	0	506	504	0	464	39	8	
9	0	0	0	0	509	505	0	462	39	8	
10	0	0	0	0	507	505	0	459	39	8	
11	0	0	0	0	508	505	0	462	38	8	
12	0	0	0	0	504	505	0	465	39	8	
13	0	0	0	0	506	505	0	469	39	8	
14	0	0	0	0	503	505	0	472	38	8	
15	0	0	0	0	508	505	0	470	39	8	
0	0	0	0	0	503	505	0	485	39	8	
1	0	0	0	0	503	505	0	502	39	8	
2	0	0	0	0	508	505	0	510	39	8	
3	0	0	0	0	508	505	0	531	39	8	
4	0	0	0	0	505	505	0	539	39	8	
5	0	0	0	0	509	505	0	551	39	8	
6	0	0	0	0	511	505	0	553	39	8	
7	0	0	0	0	507	505	0	549	39	8	
8	0	0	0	0	508	505	0	555	39	8	
9	0	0	0	0	508	505	0	565	39	8	
10	0	0	0	0	515	505	0	549	39	8	
11	0	0	0	0	508	505	0	557	39	8	
12	0	0	0	0	505	504	0	548	39	8	
13	0	0	0	0	506	505	0	551	39	8	
14	0	0	0	0	504	504	0	547	39	8	
15	0	0	0	0	507	504	0	551	38	8	
0	0	0	0	0	509	504	0	535	39	8	
1	0	0	0	0	512	504	0	526	39	8	
2	0	0	0	0	510	504	0	510	39	8	
3	0	0	0	0	506	504	0	497	39	8	
4	0	0	0	0	501	504	0	486	39	8	
5	0	0	0	0	504	505	0	478	39	8	
6	0	0	0	0	509	504	0	472	39	8	
7	0	0	0	0	502	505	0	467	39	8	
8	0	0	0	0	503	505	0	461	39	8	
9	0	0	0	0	512	505	0	454	39	8	
10	0	0	0	0	509	505	0	455	39	8	
11	0	0	0	0	508	505	0	454	39	8	
12	0	0	0	0	505	505	0	456	39	8	
13	0	0	0	0	504	505	0	455	39	8	
14	0	0	0	0	506	505	0	456	39	8	
15	0	0	0	0	508	505	0	455	39	8	
0	0	0	0	0	513	505	0	453	39	8	
1	0	0	0	0	506	505	0	450	38	8	
2	0	0	0	0	514	505	0	451	39	8	
3	0	0	0	0	507	505	0	453	39	8	
4	0	0	0	0	504	504	0	458	39	8	
5	0	0	0	0	501	504	0	461	39	8	
6	0	0	0	0	508	504	0	465	39	8	
7	0	0	0	0	510	504	0	463	39	8	
8	0	0	0	0	511	504	0	463	39	8	
9	0	0	0	0	505	505	0	460	39	8	
10	0	0	0	0	511	505	0	461	39	7	
11	0	0	0	0	504	505	0	465	39	8	
12	0	0	0	0	506	505	0	467	39	8	
13	0	0	0	0	509	505	0	469	39	8	
14	0	0	0	0	504	505	0	471	39	8	
15	0	0	0	0	504	505	0	473	39	8	
0	0	0	0	0	506	505	0	470	39	8	
1	0	0	0	0	511	505	0	464	38	8	
2	0	0	0	0	506	505	0	464	39	8	
3	0	0	0	0	510	505	0	465	39	8	
4	0	0	0	0	506	505	0	468	39	8	
5	0	0	0	0	502	504	0	470	39	8	
6	0	0	0	0	508	504	0	472	39	8	
7	0	0	0	0	511	505	0	469	39	8	
8	0	0	0	0	508	505	0	477	39	8	
9	0	0	0	0	507	504	0	460	39	8	
10	0	0	0	0	502	504	0	464	39	8	
11	0	0	0	0	508	504	0	464	38	8	
12	0	0	0	0	513	504	0	465	39	8	
13	0	0	0	0	509	504	0	467	39	8	
14	0	0	0	0	507	504	0	470	39	8	
15	0	0	0	0	504	504	0	470	39	8	
0	0	0	0	0	510	504	0	467	39	8	
1	0	0	0	0	504	504	0	467	39	8	
2	0	0	0	0	508	504	0	467	39	8	
3	0	0	0	0	508	503	0	469	39	8	
4	0	0	0	0	507	504	0	470	38	8	
5	0	0	0	0	511	504	0	472	38	8	
6	0	0	0	0	507	503	0	472	38	8	
7	0	0	0	0	507	503	0	471	39	8	
8	0	0	0	0	507	503	0	467	38	8	
9	0	0	0	0	502	504	0	465	39	8	
10	0	0	0	0	505	504	0	465	39	8	
11	0	0	0	0	501	504	0	467	39	8	
12	0	0	0	0	512	504	0	471	39	8	
13	0	0	0	0	511	504	0	473	39	8	
14	0	0	0	0	507	503	0	476	39	8	
15	0	0	0	0	508	504	0	474	39	8	
0	0	0	0	0	508	504	0	470	39	8	
1	0	0	0	0	503	504	0	469	39	8	
2	0	0	0	0	515	503	0	474	39	8	
3	0	0	0	0	510	503	0	510	39	8	
4	0	0	0	0	508	504	0	519	39	8	
5	0	0	0	0	505	504	0	537	39	8	
6	0	0	0	0	507	504	0	545	39	8	
7	0	0	0	0	508	504	0	541	39	8	
8	0	0	0	0	509	505	0	548	39	8	
9	0	0	0	0	508	505	0	547	39	8	
10	0	0	0	0	508	505	0	547	39	8	
11	0	0	0	0	510	505	0	557	39	8	
12	0	0	0	0	509	505	0	550	39	7	
13	0	0	0	0	512	505	0	562	39	8	
14	0	0	0	0	505	505	0	555	39	8	
15	0	0	0	0	507	505	0	555	39	8	
0	0	0	0	0	517	504	0	558	38	8	
1	0	0	0	0	512	504	0	554	39	8	
2	0	0	0	0	504	504	0	560	39	8	
3	0	0	0	0	504	504	0	555	39	8	
4	0	0	0	0	510	504	0	554	39	7	
5	0	0	0	0	505	504	0	561	39	8	
6	0	0	0	0	505	504	0	553	39	8	
7	0	0	0	0	515	504	0	563	38	8	
8	0	0	0	0	507	504	0	556	39	8	
9	0	0	0	0	499	504	0	557	39	8	
10	0	0	0	0	505	504	0	560	39	8	
11	0	0	0	0	505	504	0	557	39	8	
12	0	0	0	0	511	504	0	564	38	8	
13	0	0	0	0	506	504	0	564	39	8	
14	0	0	0	0	508	504	0	563	39	8	
15	0	0	0	0	508	505	0	565	39	8	
0	0	0	0	0	509	505	0	549	39	8	
1	0	0	0	0	508	505	0	540	39	8	
2	0	0	0	0	502	504	0	524	39	8	
3	0	0	0	0	501	504	0	509	39	8	
4	0	0	0	0	510	504	0	497	39	8	
5	0	0	0	0	511	504	0	489	39	8	
6	0	0	0	0	512	504	0	485	39	8	
7	0	0	0	0	511	504	0	481	39	8	
8	0	0	0	0	509	504	0	475	38	8	
9	0	0	0	0	512	504	0	471	39	8	
10	0	0	0	0	507	505	0	469	39	8	
11	0	0	0	0	504	504	0	473	39	8	
12	0	0	0	0	504	505	0	475	38	8	
13	0	0	0	0	506	505	0	477	39	8	
14	0	0	0	0	502	505	0	480	39	8	
15	0	0	0	0	502	505	0	483	39	8	
0	0	0	0	0	509	505	0	477	39	8	
1	0	0	0	0	512	505	0	477	39	8	
2	0	0	0	0	507	504	0	492	39	8	
3	0	0	0	0	511	504	0	517	39	8	
4	0	0	0	0	512	505	0	526	39	8	
5	0	0	0	0	510	504	0	549	38	8	
6	0	0	0	0	510	505	0	552	39	8	
7	0	0	0	0	502	505	0	558	39	8	
8	0	0	0	0	500	504	0	560	39	8	
9	0	0	0	0	511	504	0	551	39	8	
10	0	0	0	0	509	504	0	542	39	8	
11	0	0	0	0	519	504	0	528	39	8	
12	0	0	0	0	511	504	0	515	39	8	
13	0	0	0	0	513	504	0	503	39	8	
14	0	0	0	0	495	504	0	496	39	8	
15	0	0	0	0	507	504	0	489	39	8	
0	0	0	0	0	505	504	0	486	39	8	
1	0	0	0	0	514	504	0	482	39	8	
2	0	0	0	0	512	504	0	481	39	8	
3	0	0	0	0	504	504	0	480	38	8	
4	0	0	0	0	508	505	0	480	39	8	
5	0	0	0	0	504	505	0	478	39	8	
6	0	0	0	0	502	505	0	477	39	8	
7	0	0	0	0	508	505	0	476	39	8	
8	0	0	0	0	506	504	0	474	39	8	
9	0	0	0	0	508	505	0	468	39	8	
10	0	0	0	0	504	504	0	466	39	8	
11	0	0	0	0	508	505	0	468	38	8	
12	0	0	0	0	510	505	0	472	39	8	
13	0	0	0	0	504	505	0	474	38	8	
14	0	0	0	0	504	505	0	476	39	8	
15	0	0	0	0	506	505	0	474	39	8	
0	0	0	0	0	510	505	0	472	39	8	
1	0	0	0	0	507	505	0	471	39	8	
2	0	0	0	0	507	505	0	471	39	8	
3	0	0	0	0	509	504	0	476	39	8	
4	0	0	0	0	508	504	0	478	38	8	
5	0	0	0	0	507	504	0	481	38	8	
6	0	0	0	0	507	504	0	492	39	8	
7	0	0	0	0	511	504	0	517	38	8	
8	0	0	0	0	504	504	0	521	39	8	
9	0	0	0	0	507	504	0	539	39	8	
10	0	0	0	0	508	504	0	548	39	8	
11	0	0	0	0	513	505	0	551	39	8	
12	0	0	0	0	509	505	0	563	39	8	
13	0	0	0	0	506	504	0	556	39	8	
14	0	0	0	0	512	504	0	561	39	8	
15	0	0	0	0	509	504	0	559	39	8	
0	0	0	0	0	502	504	0	552	39	8	
1	0	0	0	0	505	504	0	556	39	8	
2	0	0	0	0	507	504	0	546	39	8	
3	0	0	0	0	510	504	0	539	39	8	
4	0	0	0	0	511	504	0	524	39	8	
5	0	0	0	0	509	504	0	509	39	8	
6	0	0	0	0	508	504	0	497	39	8	
7	0	0	0	0	498	504	0	489	39	8	
8	0	0	0	0	508	504	0	483	38	8	
9	0	0	0	0	501	504	0	494	38	8	
10	0	0	0	0	504	504	0	514	39	8	
11	0	0	0	0	511	504	0	520	38	8	
12	0	0	0	0	511	504	0	524	39	8	
13	0	0	0	0	512	504	0	539	38	8	
14	0	0	0	0	508	504	0	545	39	8	
15	0	0	0	0	506	504	0	540	39	8	
0	0	0	0	0	508	504	0	532	39	8	
1	0	0	0	0	504	505	0	518	39	8	
2	0	0	0	0	502	505	0	505	39	8	
3	0	0	0	0	512	505	0	494	38	8	
4	0	0	0	0	511	505	0	487	39	8	
5	0	0	0	0	513	505	0	482	39	8	
6	0	0	0	0	503	505	0	485	39	8	
7	0	0	0	0	504	505	0	473	39	8	
8	0	0	0	0	508	505	0	467	39	8	
9	0	0	0	0	507	505	0	464	39	8	
10	0	0	0	0	508	505	0	465	39	8	
11	0	0	0	0	508	505	0	467	39	8	
12	0	0	0	0	507	505	0	466	39	8	
13	0	0	0	0	509	505	0	466	39	8	
14	0	0	0	0	499	505	0	468	39	8	
15	0	0	0	0	510	505	0	468	38	8	
0	0	0	0	0	508	505	0	464	39	8	
1	0	0	0	0	513	505	0	460	39	8	
2	0	0	0	0	507	505	0	461	39	8	
3	0	0	0	0	506	505	0	463	39	8	
4	0	0	0	0	504	505	0	465	38	8	
5	0	0	0	0	510	504	0	468	38	8	
6	0	0	0	0	504	504	0	471	39	8	
7	0	0	0	0	508	504	0	470	38	8	
8	0	0	0	0	505	504	0	468	39	8	
9	0	0	0	0	507	504	0	463	39	8	
10	0	0	0	0	511	504	0	465	39	8	
11	0	0	0	0	506	504	0	465	38	8	
12	0	0	0	0	509	504	0	485	38	8	
13	0	0	0	0	500	504	0	510	38	8	
14	0	0	0	0	506	504	0	522	38	8	
15	0	0	0	0	510	503	0	541	38	8	
0	0	0	0	0	514	503	0	543	39	8	
1	0	0	0	0	508	503	0	546	39	8	
2	0	0	0	0	507	503	0	553	39	8	
3	0	0	0	0	508	503	0	547	39	8	
4	0	0	0	0	514	503	0	557	39	8	
5	0	0	0	0	519	503	0	553	39	8	
6	0	0	0	0	505	503	0	554	39	8	
7	0	0	0	0	509	503	0	554	39	8	
8	0	0	0	0	506	503	0	542	39	8	
9	0	0	0	0	501	504	0	532	39	8	
10	0	0	0	0	507	504	0	517	39	8	
11	0	0	0	0	508	504	0	503	39	8	
12	0	0	0	0	512	504	0	492	39	8	
13	0	0	0	0	505	504	0	483	39	8	
14	0	0	0	0	507	504	0	480	39	8	
15	0	0	0	0	510	505	0	475	39	8	
0	0	0	0	0	507	504	0	469	39	8	
1	0	0	0	0	504	504	0	465	39	8	
2	0	0	0	0	497	505	0	465	39	8	
3	0	0	0	0	509	505	0	467	38	8	
4	0	0	0	0	511	505	0	471	39	8	
5	0	0	0	0	503	505	0	469	39	8	
6	0	0	0	0	512	505	0	474	39	8	
7	0	0	0	0	504	505	0	472	39	8	
8	0	0	0	0	505	505	0	472	39	8	
9	0	0	0	0	510	504	0	466	39	8	
10	0	0	0	0	510	505	0	468	39	8	
11	0	0	0	0	509	505	0	469	39	8	
12	0	0	0	0	506	505	0	473	39	8	
13	0	0	0	0	503	504	0	473	39	8	
14	0	0	0	0	510	505	0	478	38	8	
15	0	0	0	0	510	505	0	474	38	8	
0	0	0	0	0	506	504	0	477	39	8	
1	0	0	0	0	510	504	0	466	39	8	
2	0	0	0	0	507	505	0	467	39	8	
3	0	0	0	0	515	505	0	466	39	8	
4	0	0	0	0	505	505	0	470	39	8	
5	0	0	0	0	509	505	0	481	38	8	
6	0	0	0	0	502	504	0	507	39	8	
7	0	0	0	0	515	504	0	513	39	8	
8	0	0	0	0	508	504	0	530	39	8	
9	0	0	0	0	503	504	0	538	38	8	
10	0	0	0	0	504	504	0	540	38	8	
11	0	0	0	0	496	504	0	553	38	8	
12	0	0	0	0	519	504	0	548	38	8	
13	0	0	0	0	515	504	0	555	38	8	
14	0	0	0	0	513	504	0	558	38	8	
15	0	0	0	0	505	504	0	561	38	8	
0	0	0	0	0	507	504	0	560	38	8	
1	0	0	0	0	509	504	0	549	38	8	
2	0	0	0	0	506	504	0	539	39	8	
3	0	0	0	0	499	504	0	528	39	8	
4	0	0	0	0	513	504	0	514	39	8	
5	0	0	0	0	505	504	0	506	39	8	
6	0	0	0	0	508	504	0	496	39	8	
7	0	0	0	0	509	504	0	491	39	8	
8	0	0	0	0	508	504	0	484	39	8	
9	0	0	0	0	505	504	0	481	39	8	
10	0	0	0	0	503	504	0	478	39	8	
11	0	0	0	0	497	504	0	489	39	8	
12	0	0	0	0	510	503	0	475	39	8	
13	0	0	0	0	512	504	0	476	39	8	
14	0	0	0	0	507	504	0	475	39	8	
15	0	0	0	0	513	504	0	475	39	8	
0	0	0	0	0	501	503	0	474	39	8	
1	0	0	0	0	510	503	0	472	39	8	
2	0	0	0	0	508	503	0	470	39	8	
3	0	0	0	0	518	503	0	474	39	8	
4	0	0	0	0	504	504	0	474	39	8	
5	0	0	0	0	502	503	0	479	39	8	
6	0	0	0	0	502	504	0	478	38	8	
7	0	0	0	0	499	504	0	479	38	8	
8	0	0	0	0	514	504	0	476	39	8	
9	0	0	0	0	509	504	0	475	38	8	
10	0	0	0	0	506	504	0	476	39	8	
11	0	0	0	0	510	504	0	477	39	8	
12	0	0	0	0	509	504	0	480	39	8	
13	0	0	0	0	508	504	0	482	39	8	
14	0	0	0	0	510	504	0	491	39	8	
15	0	0	0	0	501	504	0	515	39	8	
0	0	0	0	0	504	504	0	523	39	8	
1	0	0	0	0	495	505	0	536	39	8	
2	0	0	0	0	515	505	0	555	39	8	
3	0	0	0	0	503	504	0	559	39	8	
4	0	0	0	0	510	504	0	575	39	8	
5	0	0	0	0	516	504	0	572	39	8	
6	0	0	0	0	510	504	0	575	39	8	
7	0	0	0	0	507	504	0	580	39	8	
8	0	0	0	0	509	504	0	573	38	8	
9	0	0	0	0	511	504	0	580	38	8	
10	0	0	0	0	504	504	0	576	39	8	
11	0	0	0	0	499	505	0	569	38	8	
12	0	0	0	0	512	505	0	559	38	8	
13	0	0	0	0	510	505	0	543	38	8	
14	0	0	0	0	502	505	0	530	38	8	
15	0	0	0	0	503	505	0	518	38	8	
0	0	0	0	0	508	505	0	507	38	8	
1	0	0	0	0	511	505	0	497	38	8	
2	0	0	0	0	507	504	0	495	38	8	
3	0	0	0	0	511	505	0	493	38	8	
4	0	0	0	0	502	505	0	496	38	8	
5	0	0	0	0	515	505	0	495	38	8	
6	0	0	0	0	513	505	0	499	38	8	
7	0	0	0	0	511	505	0	496	38	8	
8	0	0	0	0	513	504	0	491	38	8	
9	0	0	0	0	507	504	0	490	38	8	
10	0	0	0	0	510	504	0	490	39	8	
11	0	0	0	0	496	503	0	492	39	8	
12	0	0	0	0	505	503	0	496	39	8	
13	0	0	0	0	509	503	0	499	39	8	
14	0	0	0	0	506	503	0	500	39	8	
15	0	0	0	0	509	503	0	500	39	8	
0	0	0	0	0	507	503	0	498	39	8	
1	0	0	0	0	504	504	0	502	39	8	
2	0	0	0	0	505	505	0	497	39	8	
3	0	0	0	0	512	505	0	503	39	8	
4	0	0	0	0	507	505	0	502	39	8	
5	0	0	0	0	510	504	0	505	39	8	
6	0	0	0	0	511	505	0	507	39	8	
7	0	0	0	0	503	504	0	507	39	8	
8	0	0	0	0	510	504	0	527	39	8	
9	0	0	0	0	507	504	0	541	38	8	
10	0	0	0	0	504	504	0	554	39	8	
11	0	0	0	0	516	504	0	576	39	8	
12	0	0	0	0	499	504	0	579	39	8	
13	0	0	0	0	511	504	0	588	38	8	
14	0	0	0	0	518	505	0	589	38	8	
15	0	0	0	0	501	504	0	584	39	8	
0	0	0	0	0	505	504	0	591	39	8	
1	0	0	0	0	499	504	0	583	39	8	
2	0	0	0	0	503	504	0	589	39	8	
3	0	0	0	0	500	504	0	587	39	8	
4	0	0	0	0	506	505	0	582	39	8	
5	0	0	0	0	506	504	0	571	39	8	
6	0	0	0	0	509	504	0	553	39	8	
7	0	0	0	0	500	504	0	540	39	8	
8	0	0	0	0	513	504	0	523	39	8	
9	0	0	0	0	508	504	0	512	39	8	
10	0	0	0	0	510	504	0	508	39	8	
11	0	0	0	0	506	504	0	510	39	8	
12	0	0	0	0	504	504	0	504	39	8	
13	0	0	0	0	507	504	0	504	39	8	
14	0	0	0	0	507	505	0	503	39	8	
15	0	0	0	0	506	505	0	504	39	8	
0	0	0	0	0	505	505	0	501	39	8	
1	0	0	0	0	516	504	0	498	39	8	
2	0	0	0	0	504	505	0	499	39	8	
3	0	0	0	0	505	505	0	500	39	8	
4	0	0	0	0	509	506	0	504	38	8	
5	0	0	0	0	512	506	0	507	38	8	
6	0	0	0	0	508	506	0	508	38	8	
7	0	0	0	0	508	507	0	504	38	8	
8	0	0	0	0	508	506	0	500	38	8	
9	0	0	0	0	511	506	0	496	38	8	
10	0	0	0	0	505	506	0	498	38	8	
11	0	0	0	0	504	506	0	499	38	8	
12	0	0	0	0	509	506	0	500	38	8	
13	0	0	0	0	500	506	0	503	38	8	
14	0	0	0	0	507	506	0	505	38	8	
15	0	0	0	0	510	506	0	507	38	8	
0	0	0	0	0	505	506	0	503	38	8	
1	0	0	0	0	508	506	0	500	39	8	
2	0	0	0	0	507	505	0	501	39	8	
3	0	0	0	0	510	504	0	503	39	8	
4	0	0	0	0	505	505	0	503	39	8	
5	0	0	0	0	511	505	0	504	39	8	
6	0	0	0	0	505	505	0	502	39	8	
7	0	0	0	0	516	505	0	499	39	8	
8	0	0	0	0	503	505	0	496	39	8	
9	0	0	0	0	504	505	0	492	39	8	
10	0	0	0	0	513	505	0	491	39	8	
11	0	0	0	0	507	505	0	510	39	8	
12	0	0	0	0	505	505	0	534	39	8	
13	0	0	0	0	505	505	0	544	39	8	
14	0	0	0	0	504	505	0	564	39	8	
15	0	0	0	0	508	505	0	571	39	8	
0	0	0	0	0	508	504	0	572	38	8	
1	0	0	0	0	510	504	0	579	39	8	
2	0	0	0	0	509	504	0	572	39	8	
3	0	0	0	0	502	504	0	583	38	8	
4	0	0	0	0	508	505	0	584	39	8	
5	0	0	0	0	514	505	0	583	38	8	
6	0	0	0	0	508	504	0	587	39	8	
7	0	0	0	0	507	504	0	576	38	8	
8	0	0	0	0	503	504	0	583	38	8	
9	0	0	0	0	510	504	0	575	39	8	
10	0	0	0	0	507	504	0	574	39	8	
11	0	0	0	0	505	504	0	580	39	8	
12	0	0	0	0	508	503	0	575	39	8	
13	0	0	0	0	509	504	0	567	38	8	
14	0	0	0	0	499	503	0	586	39	8	
15	0	0	0	0	513	503	0	569	39	8	
0	0	0	0	0	511	503	0	561	39	8	
1	0	0	0	0	508	503	0	550	39	8	
2	0	0	0	0	507	503	0	536	39	8	
3	0	0	0	0	511	503	0	524	39	8	
4	0	0	0	0	502	504	0	515	39	8	
5	0	0	0	0	501	504	0	509	39	8	
6	0	0	0	0	507	504	0	504	39	8	
7	0	0	0	0	511	504	0	501	39	8	
8	0	0	0	0	512	503	0	494	39	8	
9	0	0	0	0	504	503	0	489	39	8	
10	0	0	0	0	510	503	0	487	39	8	
11	0	0	0	0	510	503	0	489	39	8	
12	0	0	0	0	509	504	0	489	38	8	
13	0	0	0	0	508	503	0	506	39	8	
14	0	0	0	0	503	503	0	488	39	8	
15	0	0	0	0	514	503	0	490	39	8	
0	0	0	0	0	502	503	0	486	38	8	
1	0	0	0	0	507	503	0	482	38	8	
2	0	0	0	0	507	503	0	484	39	8	
3	0	0	0	0	510	503	0	485	38	8	
4	0	0	0	0	512	504	0	488	38	8	
5	0	0	0	0	505	504	0	490	38	8	
6	0	0	0	0	512	504	0	492	38	8	
7	0	0	0	0	506	504	0	490	38	8	
8	0	0	0	0	507	504	0	488	38	8	
9	0	0	0	0	511	504	0	483	39	8	
10	0	0	0	0	503	504	0	485	39	8	
11	0	0	0	0	506	504	0	489	39	8	
12	0	0	0	0	509	504	0	492	39	8	
13	0	0	0	0	512	504	0	495	39	8	
14	0	0	0	0	505	504	0	496	38	8	
15	0	0	0	0	504	504	0	497	39	8	
0	0	0	0	0	508	504	0	494	39	8	
1	0	0	0	0	511	504	0	492	39	8	
2	0	0	0	0	508	504	0	492	39	8	
3	0	0	0	0	510	505	0	506	39	8	
4	0	0	0	0	510	505	0	493	39	8	
5	0	0	0	0	503	504	0	496	39	8	
6	0	0	0	0	510	504	0	495	39	8	
7	0	0	0	0	508	504	0	496	39	8	
8	0	0	0	0	511	504	0	494	39	8	
9	0	0	0	0	502	505	0	492	39	8	
10	0	0	0	0	496	504	0	491	39	8	
11	0	0	0	0	503	504	0	493	39	8	
12	0	0	0	0	508	504	0	494	39	8	
13	0	0	0	0	510	505	0	495	39	8	
14	0	0	0	0	506	504	0	496	38	8	
15	0	0	0	0	506	504	0	495	39	8	
0	0	0	0	0	514	504	0	491	39	8	
1	0	0	0	0	504	503	0	489	39	8	
2	0	0	0	0	506	503	0	491	39	8	
3	0	0	0	0	510	503	0	495	39	8	
4	0	0	0	0	511	504	0	496	38	8	
5	0	0	0	0	500	503	0	497	39	8	
6	0	0	0	0	513	503	0	498	39	8	
7	0	0	0	0	510	503	0	504	38	8	
8	0	0	0	0	501	503	0	528	39	8	
9	0	0	0	0	509	503	0	537	39	8	
10	0	0	0	0	503	504	0	558	39	8	
11	0	0	0	0	508	504	0	568	39	8	
12	0	0	0	0	504	504	0	571	39	8	
13	0	0	0	0	508	504	0	583	39	8	
14	0	0	0	0	507	504	0	578	39	8	
15	0	0	0	0	507	504	0	584	39	8	
0	0	0	0	0	500	504	0	583	39	8	
1	0	0	0	0	511	504	0	577	39	8	
2	0	0	0	0	512	504	0	583	39	8	
3	0	0	0	0	507	504	0	576	39	8	
4	0	0	0	0	501	504	0	582	39	8	
5	0	0	0	0	503	504	0	587	39	8	
6	0	0	0	0	514	504	0	583	39	8	
7	0	0	0	0	511	504	0	590	38	8	
8	0	0	0	0	500	504	0	572	39	8	
9	0	0	0	0	509	504	0	576	38	8	
10	0	0	0	0	513	504	0	575	39	8	
11	0	0	0	0	515	504	0	575	39	8	
12	0	0	0	0	507	504	0	585	38	8	
13	0	0	0	0	512	504	0	581	38	8	
14	0	0	0	0	506	504	0	587	39	8	
15	0	0	0	0	511	504	0	582	38	8	
0	0	0	0	0	504	504	0	575	39	8	
1	0	0	0	0	510	503	0	563	39	8	
2	0	0	0	0	507	503	0	547	39	8	
3	0	0	0	0	504	503	0	533	39	8	
4	0	0	0	0	506	503	0	521	39	8	
5	0	0	0	0	503	503	0	513	39	8	
6	0	0	0	0	506	503	0	510	39	8	
7	0	0	0	0	506	504	0	509	39	8	
8	0	0	0	0	523	503	0	505	39	8	
9	0	0	0	0	500	503	0	500	39	8	
10	0	0	0	0	511	504	0	500	39	8	
11	0	0	0	0	509	504	0	501	39	8	
12	0	0	0	0	510	504	0	502	39	8	
13	0	0	0	0	505	504	0	502	39	8	
14	0	0	0	0	511	504	0	501	39	8	
15	0	0	0	0	504	504	0	499	39	8	
0	0	0	0	0	506	504	0	497	39	8	
1	0	0	0	0	504	504	0	494	39	8	
2	0	0	0	0	504	504	0	496	39	8	
3	0	0	0	0	507	504	0	498	39	8	
4	0	0	0	0	519	504	0	502	39	8	
5	0	0	0	0	507	504	0	506	39	8	
6	0	0	0	0	514	504	0	508	39	8	
7	0	0	0	0	516	504	0	507	39	8	
8	0	0	0	0	498	504	0	503	39	8	
9	0	0	0	0	503	504	0	500	39	8	
10	0	0	0	0	506	504	0	503	39	8	
11	0	0	0	0	507	504	0	505	39	8	
12	0	0	0	0	515	504	0	509	38	8	
13	0	0	0	0	513	504	0	507	38	8	
14	0	0	0	0	512	504	0	510	39	8	
15	0	0	0	0	503	504	0	513	38	8	
0	0	0	0	0	516	504	0	537	39	8	
1	0	0	0	0	509	505	0	548	38	8	
2	0	0	0	0	512	504	0	565	39	8	
3	0	0	0	0	501	505	0	577	39	8	
4	0	0	0	0	512	504	0	578	38	8	
5	0	0	0	0	510	504	0	588	39	8	
6	0	0	0	0	505	504	0	585	38	8	
7	0	0	0	0	505	504	0	587	38	8	
8	0	0	0	0	511	504	0	591	38	8	
9	0	0	0	0	506	504	0	581	38	8	
10	0	0	0	0	503	504	0	589	39	8	
11	0	0	0	0	503	504	0	584	38	8	
12	0	0	0	0	507	503	0	578	38	8	
13	0	0	0	0	512	503	0	564	38	8	
14	0	0	0	0	501	504	0	549	39	8	
15	0	0	0	0	508	504	0	535	38	8	
0	0	0	0	0	505	504	0	523	39	8	
1	0	0	0	0	508	504	0	515	38	8	
2	0	0	0	0	513	504	0	508	39	8	
3	0	0	0	0	507	504	0	505	38	8	
4	0	0	0	0	507	504	0	503	38	8	
5	0	0	0	0	508	504	0	502	38	8	
6	0	0	0	0	504	504	0	500	39	8	
7	0	0	0	0	510	504	0	499	39	8	
8	0	0	0	0	513	504	0	496	38	8	
9	0	0	0	0	510	504	0	494	39	8	
10	0	0	0	0	507	504	0	493	39	8	
11	0	0	0	0	505	504	0	496	39	8	
12	0	0	0	0	503	504	0	497	38	8	
13	0	0	0	0	504	505	0	499	39	8	
14	0	0	0	0	507	504	0	499	39	8	
15	0	0	0	0	506	505	0	501	39	8	
0	0	0	0	0	513	505	0	499	39	8	
1	0	0	0	0	513	505	0	497	39	8	
2	0	0	0	0	512	505	0	498	39	8	
3	0	0	0	0	505	505	0	500	39	8	
4	0	0	0	0	508	505	0	502	39	8	
5	0	0	0	0	509	505	0	502	39	8	
6	0	0	0	0	505	504	0	502	39	8	
7	0	0	0	0	509	505	0	503	39	8	
8	0	0	0	0	513	505	0	501	39	8	
9	0	0	0	0	511	505	0	524	39	8	
10	0	0	0	0	504	504	0	545	39	8	
11	0	0	0	0	506	504	0	561	39	8	
12	0	0	0	0	501	504	0	578	39	8	
13	0	0	0	0	506	504	0	578	39	8	
14	0	0	0	0	508	504	0	585	39	8	
15	0	0	0	0	511	504	0	583	39	8	
0	0	0	0	0	505	504	0	579	39	8	
1	0	0	0	0	502	504	0	585	39	8	
2	0	0	0	0	512	504	0	580	39	8	
3	0	0	0	0	507	504	0	585	39	8	
4	0	0	0	0	504	504	0	583	39	8	
5	0	0	0	0	505	504	0	576	39	8	
6	0	0	0	0	517	504	0	569	39	8	
7	0	0	0	0	510	504	0	577	39	8	
8	0	0	0	0	502	504	0	571	39	8	
9	0	0	0	0	506	504	0	563	39	8	
10	0	0	0	0	508	504	0	568	39	8	
11	0	0	0	0	508	504	0	536	38	8	
12	0	0	0	0	507	504	0	524	38	8	
13	0	0	0	0	512	504	0	513	38	8	
14	0	0	0	0	511	504	0	506	38	8	
15	0	0	0	0	508	504	0	499	38	8	
0	0	0	0	0	500	504	0	498	38	8	
1	0	0	0	0	507	504	0	492	38	8	
2	0	0	0	0	509	504	0	493	38	8	
3	0	0	0	0	504	504	0	491	38	8	
4	0	0	0	0	512	504	0	492	38	8	
5	0	0	0	0	514	504	0	493	38	8	
6	0	0	0	0	501	504	0	494	38	8	
7	0	0	0	0	509	504	0	492	38	8	
8	0	0	0	0	515	504	0	488	38	8	
9	0	0	0	0	510	504	0	486	38	8	
10	0	0	0	0	505	505	0	487	39	8	
11	0	0	0	0	506	505	0	491	38	8	
12	0	0	0	0	505	504	0	492	39	8	
13	0	0	0	0	508	505	0	494	38	8	
14	0	0	0	0	508	504	0	496	39	8	
15	0	0	0	0	504	505	0	499	38	8	
0	0	0	0	0	511	504	0	495	39	8	
1	0	0	0	0	513	504	0	495	38	8	
2	0	0	0	0	506	504	0	492	39	8	
3	0	0	0	0	504	504	0	493	38	8	
4	0	0	0	0	509	504	0	495	39	8	
5	0	0	0	0	501	503	0	499	39	8	
6	0	0	0	0	504	504	0	521	38	8	
7	0	0	0	0	509	504	0	538	38	8	
8	0	0	0	0	504	504	0	547	38	8	
9	0	0	0	0	512	504	0	563	39	8	
10	0	0	0	0	507	504	0	561	39	8	
11	0	0	0	0	510	504	0	571	38	8	
12	0	0	0	0	506	504	0	575	39	8	
13	0	0	0	0	507	504	0	573	39	8	
14	0	0	0	0	509	504	0	580	39	8	
15	0	0	0	0	504	504	0	585	39	8	
0	0	0	0	0	510	504	0	569	39	8	
1	0	0	0	0	514	504	0	566	39	8	
2	0	0	0	0	508	504	0	557	39	8	
3	0	0	0	0	510	504	0	548	39	8	
4	0	0	0	0	514	504	0	530	39	8	
5	0	0	0	0	509	504	0	519	39	8	
6	0	0	0	0	508	504	0	507	39	8	
7	0	0	0	0	506	504	0	499	39	8	
8	0	0	0	0	508	503	0	494	39	8	
9	0	0	0	0	504	503	0	486	39	8	
10	0	0	0	0	507	503	0	484	39	8	
11	0	0	0	0	513	502	0	483	39	8	
12	0	0	0	0	505	502	0	483	39	8	
13	0	0	0	0	507	501	0	483	39	8	
14	0	0	0	0	502	501	0	484	39	8	
15	0	0	0	0	511	500	0	482	39	8	
0	0	0	0	0	501	500	0	478	39	8	
1	0	0	0	0	502	500	0	476	39	8	
2	0	0	0	0	503	499	0	478	39	8	
3	0	0	0	0	516	498	0	480	39	8	
4	0	0	0	0	511	497	0	485	39	8	
5	0	0	0	0	505	496	0	487	39	8	
6	0	0	0	0	505	496	0	488	39	8	
7	0	0	0	0	512	496	0	490	38	8	
8	0	0	0	0	507	495	0	488	39	8	
9	0	0	0	0	507	494	0	485	38	8	
10	0	0	0	0	510	493	0	486	39	8	
11	0	0	0	0	511	492	0	487	39	8	
12	0	0	0	0	508	491	0	488	38	8	
13	0	0	0	0	505	490	0	489	39	8	
14	0	0	0	0	511	490	0	489	38	8	
15	0	0	0	0	506	489	0	505	39	8	
0	0	0	0	0	504	488	0	525	39	8	
1	0	0	0	0	513	487	0	531	38	8	
2	0	0	0	0	506	486	0	551	39	8	
3	0	0	0	0	513	484	0	555	39	8	
4	0	0	0	0	513	484	0	562	39	8	
5	0	0	0	0	508	483	0	572	39	8	
6	0	0	0	0	509	482	0	569	38	8	
7	0	0	0	0	507	481	0	575	38	8	
8	0	0	0	0	513	480	0	567	38	8	
9	0	0	0	0	505	478	0	562	38	8	
10	0	0	0	0	502	477	0	571	39	8	
11	0	0	0	0	499	474	0	565	39	8	
12	0	0	0	0	509	472	0	560	39	8	
13	0	0	0	0	506	470	0	543	38	8	
14	0	0	0	0	508	468	0	528	38	8	
15	0	0	0	0	500	466	0	512	39	8	
0	0	0	0	0	512	464	0	508	38	8	
1	0	0	0	0	508	462	0	521	38	8	
2	0	0	0	0	505	461	0	527	39	8	
3	0	0	0	0	504	459	0	530	39	8	
4	0	0	0	0	506	457	0	527	39	8	
5	0	0	0	0	508	455	0	518	38	8	
6	0	0	0	0	514	454	0	510	39	8	
7	0	0	0	0	509	454	0	502	38	8	
8	0	0	0	0	503	453	0	491	39	8	
9	0	0	0	0	511	452	0	485	39	8	
10	0	0	0	0	509	452	0	483	39	8	
11	0	0	0	0	507	452	0	481	39	8	
12	0	0	0	0	508	452	0	478	39	8	
13	0	0	0	0	508	453	0	477	38	8	
14	0	0	0	0	500	453	0	476	39	8	
15	0	0	0	0	505	454	0	476	39	8	
0	0	0	0	0	507	455	0	471	39	8	
1	0	0	0	0	508	455	0	467	39	8	
2	0	0	0	0	511	456	0	466	39	8	
3	0	0	0	0	511	456	0	469	39	8	
4	0	0	0	0	507	456	0	472	39	8	
5	0	0	0	0	511	457	0	475	39	8	
6	0	0	0	0	507	458	0	476	39	8	
7	0	0	0	0	508	458	0	476	39	8	
8	0	0	0	0	510	458	0	474	39	8	
9	0	0	0	0	508	457	0	469	39	8	
10	0	0	0	0	508	456	0	470	39	8	
11	0	0	0	0	507	455	0	470	39	8	
12	0	0	0	0	507	455	0	472	38	8	
13	0	0	0	0	504	454	0	475	39	8	
14	0	0	0	0	507	454	0	477	39	8	
15	0	0	0	0	507	453	0	479	39	8	
0	0	0	0	0	511	452	0	498	39	8	
1	0	0	0	0	504	451	0	512	38	8	
2	0	0	0	0	506	451	0	521	39	8	
3	0	0	0	0	504	449	0	543	38	8	
4	0	0	0	0	507	448	0	544	39	8	
5	0	0	0	0	505	448	0	555	38	8	
6	0	0	0	0	512	447	0	556	38	8	
7	0	0	0	0	510	446	0	552	38	8	
8	0	0	0	0	510	446	0	560	38	8	
9	0	0	0	0	510	446	0	553	38	8	
10	0	0	0	0	506	446	0	557	39	8	
11	0	0	0	0	505	446	0	563	38	8	
12	0	0	0	0	512	447	0	547	39	8	
13	0	0	0	0	513	448	0	543	38	8	
14	0	0	0	0	505	448	0	551	39	8	
15	0	0	0	0	508	448	0	548	39	8	
0	0	0	0	0	507	448	0	540	38	8	
1	0	0	0	0	510	449	0	528	39	8	
2	0	0	0	0	506	450	0	515	39	8	
3	0	0	0	0	508	451	0	504	39	8	
4	0	0	0	0	505	452	0	495	39	8	
5	0	0	0	0	507	453	0	487	39	8	
6	0	0	0	0	510	454	0	482	39	8	
7	0	0	0	0	506	455	0	480	39	8	
8	0	0	0	0	509	455	0	475	39	8	
9	0	0	0	0	505	457	0	469	39	8	
10	0	0	0	0	505	459	0	469	39	8	
11	0	0	0	0	507	460	0	470	39	8	
12	0	0	0	0	507	462	0	472	39	8	
13	0	0	0	0	506	463	0	474	39	8	
14	0	0	0	0	507	464	0	475	39	8	
15	0	0	0	0	505	465	0	475	39	8	
0	0	0	0	0	512	467	0	473	39	8	
1	0	0	0	0	507	468	0	471	39	8	
2	0	0	0	0	508	469	0	473	39	8	
3	0	0	0	0	505	470	0	476	38	8	
4	0	0	0	0	515	472	0	478	39	8	
5	0	0	0	0	507	473	0	479	39	8	
6	0	0	0	0	504	474	0	482	38	8	
7	0	0	0	0	507	476	0	482	39	8	
8	0	0	0	0	512	477	0	488	39	8	
9	0	0	0	0	504	480	0	480	39	8	
10	0	0	0	0	500	482	0	484	39	8	
11	0	0	0	0	496	485	0	485	39	8	
12	0	0	0	0	511	487	0	490	39	8	
13	0	0	0	0	513	490	0	490	39	8	
14	0	0	0	0	512	492	0	494	39	8	
15	0	0	0	0	503	495	0	492	39	8	
0	0	0	0	0	502	498	0	492	39	8	
1	0	0	0	0	505	501	0	487	39	8	
2	0	0	0	0	509	503	0	490	39	8	
3	0	0	0	0	507	506	0	491	38	8	
4	0	0	0	0	512	508	0	496	39	8	
5	0	0	0	0	508	511	0	499	39	8	
6	0	0	0	0	504	513	0	500	39	8	
7	0	0	0	0	511	511	0	501	38	8	
8	0	0	0	0	507	508	0	498	38	8	
9	0	0	0	0	501	503	0	495	39	8	
10	0	0	0	0	509	498	0	495	39	8	
11	0	0	0	0	512	492	0	496	39	8	
12	0	0	0	0	513	486	0	498	38	8	
13	0	0	0	0	510	477	0	496	38	8	
14	0	0	0	0	502	472	0	497	38	8	
15	0	0	0	0	505	464	0	497	38	8	
0	0	0	0	0	514	457	0	493	38	8	
1	0	0	0	0	507	448	0	488	38	8	
2	0	0	0	0	507	441	0	490	39	8	
3	0	0	0	0	502	432	0	501	38	8	
4	0	0	0	0	507	425	0	530	39	8	
5	0	0	0	0	510	417	0	542	39	8	
6	0	0	0	0	507	411	0	561	38	8	
7	0	0	0	0	505	411	0	565	38	8	
8	0	0	0	0	514	413	0	563	38	8	
9	0	0	0	0	506	420	0	575	39	8	
10	0	0	0	0	508	427	0	573	39	8	
11	0	0	0	0	500	439	0	580	39	8	
12	0	0	0	0	506	449	0	580	39	8	
13	0	0	0	0	507	462	0	575	38	8	
14	0	0	0	0	508	472	0	583	39	8	
15	0	0	0	0	507	486	0	572	39	8	
0	0	0	0	0	511	498	0	575	39	8	
1	0	0	0	0	511	513	0	575	39	8	
2	0	0	0	0	508	524	0	571	39	8	
3	0	0	0	0	512	539	0	579	39	8	
4	0	0	0	0	506	551	0	572	39	8	
5	0	0	0	0	505	567	0	578	39	8	
6	0	0	0	0	507	579	0	579	39	8	
7	0	0	0	0	511	590	0	576	39	8	
8	0	0	0	0	509	596	0	582	39	8	
9	0	0	0	0	507	602	0	574	39	8	
10	0	0	0	0	505	606	0	566	39	8	
11	0	0	0	0	502	609	0	552	39	8	
12	0	0	0	0	505	612	0	536	39	8	
13	0	0	0	0	507	615	0	525	39	8	
14	0	0	0	0	512	616	0	516	39	8	
15	0	0	0	0	512	618	0	509	39	8	
0	0	0	0	0	510	620	0	502	38	8	
1	0	0	0	0	505	621	0	499	39	8	
2	0	0	0	0	506	622	0	500	39	8	
3	0	0	0	0	508	623	0	499	39	8	
4	0	0	0	0	505	623	0	498	39	8	
5	0	0	0	0	505	624	0	498	38	8	
6	0	0	0	0	508	624	0	499	39	8	
7	0	0	0	0	510	624	0	500	39	8	
8	0	0	0	0	499	624	0	496	39	8	
9	0	0	0	0	509	624	0	492	39	8	
10	0	0	0	0	504	625	0	493	39	8	
11	0	0	0	0	502	626	0	505	39	8	
12	0	0	0	0	508	625	0	499	39	8	
13	0	0	0	0	512	625	0	504	39	8	
14	0	0	0	0	512	625	0	502	39	8	
15	0	0	0	0	510	625	0	511	39	8	
0	0	0	0	0	508	625	0	497	39	8	
1	0	0	0	0	501	625	0	495	39	8	
2	0	0	0	0	504	624	0	496	39	8	
3	0	0	0	0	511	624	0	499	39	8	
4	0	0	0	0	511	624	0	501	38	8	
5	0	0	0	0	512	623	0	517	39	8	
6	0	0	0	0	504	623	0	511	39	8	
7	0	0	0	0	503	623	0	551	38	8	
8	0	0	0	0	509	622	0	546	39	8	
9	0	0	0	0	506	621	0	559	39	8	
10	0	0	0	0	501	620	0	572	39	8	
11	0	0	0	0	507	620	0	574	39	8	
12	0	0	0	0	506	619	0	584	38	8	
13	0	0	0	0	507	618	0	582	39	8	
14	0	0	0	0	505	618	0	581	38	8	
15	0	0	0	0	510	617	0	587	39	8	
0	0	0	0	0	507	616	0	577	39	8	
1	0	0	0	0	508	615	0	586	39	8	
2	0	0	0	0	510	614	0	579	39	8	
3	0	0	0	0	507	614	0	573	39	8	
4	0	0	0	0	501	613	0	560	39	8	
5	0	0	0	0	512	612	0	543	39	8	
6	0	0	0	0	508	612	0	529	39	8	
7	0	0	0	0	512	610	0	518	39	8	
8	0	0	0	0	507	608	0	508	39	8	
9	0	0	0	0	502	606	0	498	39	8	
10	0	0	0	0	506	604	0	494	39	8	
11	0	0	0	0	513	601	0	491	39	8	
12	0	0	0	0	519	598	0	490	39	8	
13	0	0	0	0	499	595	0	489	39	8	
14	0	0	0	0	502	592	0	489	39	8	
15	0	0	0	0	504	589	0	489	39	8	
0	0	0	0	0	505	586	0	486	39	8	
1	0	0	0	0	512	583	0	483	39	8	
2	0	0	0	0	513	580	0	497	39	8	
3	0	0	0	0	510	578	0	482	39	8	
4	0	0	0	0	507	575	0	486	39	8	
5	0	0	0	0	511	572	0	484	39	8	
6	0	0	0	0	497	569	0	487	39	8	
7	0	0	0	0	511	566	0	485	38	8	
8	0	0	0	0	506	563	0	485	39	8	
9	0	0	0	0	498	559	0	481	38	8	
10	0	0	0	0	506	555	0	482	39	8	
11	0	0	0	0	507	551	0	481	38	8	
12	0	0	0	0	504	547	0	482	38	8	
13	0	0	0	0	505	543	0	484	39	8	
14	0	0	0	0	507	539	0	485	38	8	
15	0	0	0	0	508	535	0	486	38	8	
0	0	0	0	0	505	531	0	506	38	8	
1	0	0	0	0	506	526	0	521	38	8	
2	0	0	0	0	511	523	0	531	39	8	
3	0	0	0	0	506	519	0	552	38	8	
4	0	0	0	0	507	515	0	554	38	8	
5	0	0	0	0	514	511	0	566	39	8	
6	0	0	0	0	514	507	0	567	38	8	
7	0	0	0	0	509	503	0	563	39	8	
8	0	0	0	0	508	501	0	569	39	8	
9	0	0	0	0	501	498	0	560	39	8	
10	0	0	0	0	508	496	0	563	39	8	
11	0	0	0	0	508	493	0	572	39	8	
12	0	0	0	0	503	491	0	553	39	8	
13	0	0	0	0	508	489	0	547	39	8	
14	0	0	0	0	507	487	0	555	39	8	
15	0	0	0	0	508	486	0	551	39	8	
0	0	0	0	0	504	484	0	540	39	8	
1	0	0	0	0	506	482	0	527	38	8	
2	0	0	0	0	504	480	0	512	39	8	
3	0	0	0	0	509	478	0	498	39	8	
4	0	0	0	0	512	477	0	488	39	8	
5	0	0	0	0	509	475	0	483	39	8	
6	0	0	0	0	514	474	0	481	39	8	
7	0	0	0	0	509	472	0	480	39	8	
8	0	0	0	0	506	470	0	475	39	8	
9	0	0	0	0	507	468	0	469	39	8	
10	0	0	0	0	508	467	0	467	39	8	
11	0	0	0	0	506	464	0	469	39	8	
12	0	0	0	0	511	462	0	471	39	8	
13	0	0	0	0	507	460	0	472	39	8	
14	0	0	0	0	504	458	0	473	39	8	
15	0	0	0	0	506	456	0	470	39	8	
0	0	0	0	0	511	455	0	467	39	8	
1	0	0	0	0	505	453	0	462	39	8	
2	0	0	0	0	505	451	0	461	39	8	
3	0	0	0	0	505	449	0	463	39	8	
4	0	0	0	0	506	448	0	465	38	8	
5	0	0	0	0	504	446	0	465	39	8	
6	0	0	0	0	512	444	0	468	39	8	
7	0	0	0	0	510	442	0	469	39	8	
8	0	0	0	0	510	440	0	468	39	8	
9	0	0	0	0	512	438	0	464	39	8	
10	0	0	0	0	507	436	0	470	39	8	
11	0	0	0	0	508	435	0	472	39	8	
12	0	0	0	0	505	433	0	477	39	8	
13	0	0	0	0	506	432	0	478	39	8	
14	0	0	0	0	509	431	0	481	39	8	
15	0	0	0	0	508	429	0	490	39	8	
0	0	0	0	0	506	428	0	515	39	8	
1	0	0	0	0	511	426	0	522	39	8	
2	0	0	0	0	509	425	0	542	39	8	
3	0	0	0	0	510	423	0	550	38	8	
4	0	0	0	0	509	422	0	553	38	8	
5	0	0	0	0	506	420	0	568	38	8	
6	0	0	0	0	516	418	0	564	39	8	
7	0	0	0	0	504	417	0	571	39	8	
8	0	0	0	0	505	415	0	564	39	8	
9	0	0	0	0	508	413	0	556	38	8	
10	0	0	0	0	510	412	0	563	39	8	
11	0	0	0	0	504	410	0	559	39	8	
12	0	0	0	0	508	409	0	552	39	8	
13	0	0	0	0	504	406	0	540	38	8	
14	0	0	0	0	512	405	0	525	38	8	
15	0	0	0	0	508	403	0	514	39	8	
0	0	0	0	0	510	401	0	505	39	8	
1	0	0	0	0	506	399	0	496	39	8	
2	0	0	0	0	503	398	0	490	39	8	
3	0	0	0	0	503	396	0	488	39	8	
4	0	0	0	0	509	395	0	489	39	8	
5	0	0	0	0	509	393	0	489	39	8	
6	0	0	0	0	507	391	0	489	39	8	
7	0	0	0	0	506	391	0	487	39	8	
8	0	0	0	0	511	391	0	484	39	8	
9	0	0	0	0	508	391	0	484	39	8	
10	0	0	0	0	508	391	0	481	39	8	
11	0	0	0	0	511	392	0	483	39	8	
12	0	0	0	0	507	393	0	484	39	8	
13	0	0	0	0	502	395	0	485	39	8	
14	0	0	0	0	507	396	0	487	39	8	
15	0	0	0	0	508	397	0	486	39	8	
0	0	0	0	0	501	398	0	485	39	8	
1	0	0	0	0	505	399	0	482	39	8	
2	0	0	0	0	509	401	0	484	39	8	
3	0	0	0	0	504	402	0	487	39	8	
4	0	0	0	0	514	403	0	487	38	8	
5	0	0	0	0	508	404	0	489	39	8	
6	0	0	0	0	507	406	0	489	38	8	
7	0	0	0	0	504	407	0	488	39	8	
8	0	0	0	0	513	408	0	491	39	8	
9	0	0	0	0	506	409	0	514	39	8	
10	0	0	0	0	515	410	0	528	39	8	
11	0	0	0	0	510	411	0	544	39	8	
12	0	0	0	0	504	412	0	561	39	8	
13	0	0	0	0	511	411	0	559	39	8	
14	0	0	0	0	506	412	0	572	38	8	
15	0	0	0	0	507	412	0	569	39	8	
0	0	0	0	0	504	412	0	570	39	8	
1	0	0	0	0	504	413	0	568	39	8	
2	0	0	0	0	509	413	0	562	39	8	
3	0	0	0	0	511	414	0	568	39	8	
4	0	0	0	0	512	415	0	563	39	8	
5	0	0	0	0	505	415	0	556	39	8	
6	0	0	0	0	508	415	0	555	39	8	
7	0	0	0	0	506	416	0	564	39	8	
8	0	0	0	0	501	418	0	557	38	8	
9	0	0	0	0	508	421	0	551	39	8	
10	0	0	0	0	511	424	0	540	39	8	
11	0	0	0	0	512	428	0	526	39	8	
12	0	0	0	0	510	431	0	519	39	8	
13	0	0	0	0	510	434	0	508	39	8	
14	0	0	0	0	513	438	0	501	39	8	
15	0	0	0	0	504	442	0	495	39	8	
0	0	0	0	0	510	446	0	489	39	8	
1	0	0	0	0	512	450	0	484	39	8	
2	0	0	0	0	500	453	0	483	39	8	
3	0	0	0	0	505	457	0	483	38	8	
4	0	0	0	0	503	460	0	484	38	8	
5	0	0	0	0	508	465	0	484	39	8	
6	0	0	0	0	511	468	0	487	38	8	
7	0	0	0	0	508	472	0	487	39	8	
8	0	0	0	0	510	476	0	486	38	8	
9	0	0	0	0	504	482	0	484	38	8	
10	0	0	0	0	507	487	0	485	39	8	
11	0	0	0	0	509	491	0	487	39	8	
12	0	0	0	0	505	496	0	491	39	8	
13	0	0	0	0	507	502	0	490	39	8	
14	0	0	0	0	509	506	0	490	38	8	
15	0	0	0	0	507	512	0	487	39	8	
0	0	0	0	0	507	517	0	486	39	8	
1	0	0	0	0	500	522	0	483	38	8	
2	0	0	0	0	506	527	0	483	39	8	
3	0	0	0	0	511	532	0	485	39	8	
4	0	0	0	0	507	537	0	489	39	8	
5	0	0	0	0	512	542	0	498	39	8	
6	0	0	0	0	499	546	0	524	39	8	
7	0	0	0	0	514	551	0	536	39	8	
8	0	0	0	0	507	555	0	547	39	8	
9	0	0	0	0	502	558	0	562	39	8	
10	0	0	0	0	509	560	0	561	39	8	
11	0	0	0	0	508	564	0	575	38	8	
12	0	0	0	0	506	567	0	571	39	8	
13	0	0	0	0	512	570	0	573	39	8	
14	0	0	0	0	510	572	0	577	39	8	
15	0	0	0	0	501	575	0	572	39	8	
0	0	0	0	0	506	577	0	577	39	8	
1	0	0	0	0	513	579	0	573	39	8	
2	0	0	0	0	509	582	0	563	39	8	
3	0	0	0	0	508	584	0	550	39	8	
4	0	0	0	0	508	586	0	532	38	8	
5	0	0	0	0	509	589	0	520	38	8	
6	0	0	0	0	509	591	0	506	39	8	
7	0	0	0	0	506	593	0	499	38	8	
8	0	0	0	0	502	595	0	492	39	8	
9	0	0	0	0	508	598	0	487	39	8	
10	0	0	0	0	505	600	0	480	39	8	
11	0	0	0	0	507	602	0	481	39	8	
12	0	0	0	0	509	604	0	480	39	8	
13	0	0	0	0	505	606	0	482	39	8	
14	0	0	0	0	508	608	0	482	38	8	
15	0	0	0	0	510	610	0	483	39	8	
0	0	0	0	0	508	612	0	480	39	8	
1	0	0	0	0	504	614	0	481	39	8	
2	0	0	0	0	507	616	0	482	39	8	
3	0	0	0	0	510	618	0	488	39	8	
4	0	0	0	0	512	620	0	488	39	8	
5	0	0	0	0	509	622	0	491	39	8	
6	0	0	0	0	505	623	0	489	39	8	
7	0	0	0	0	500	624	0	491	39	8	
8	0	0	0	0	510	623	0	488	39	8	
9	0	0	0	0	515	623	0	487	39	8	
10	0	0	0	0	508	623	0	483	39	8	
11	0	0	0	0	504	623	0	487	39	8	
12	0	0	0	0	507	622	0	488	39	8	
13	0	0	0	0	503	621	0	492	39	8	
14	0	0	0	0	508	620	0	491	39	8	
15	0	0	0	0	508	619	0	491	39	8	
0	0	0	0	0	506	618	0	485	39	8	
1	0	0	0	0	510	616	0	483	39	8	
2	0	0	0	0	510	615	0	485	39	8	
3	0	0	0	0	501	614	0	488	39	8	
4	0	0	0	0	507	612	0	491	38	8	
5	0	0	0	0	513	611	0	492	38	8	
6	0	0	0	0	511	610	0	494	39	8	
7	0	0	0	0	506	610	0	496	38	8	
8	0	0	0	0	512	610	0	493	39	8	
9	0	0	0	0	514	611	0	492	39	8	
10	0	0	0	0	505	611	0	492	39	8	
11	0	0	0	0	507	613	0	494	39	8	
12	0	0	0	0	505	614	0	496	39	8	
13	0	0	0	0	502	615	0	496	39	8	
14	0	0	0	0	513	616	0	496	39	8	
15	0	0	0	0	507	618	0	493	39	8	
0	0	0	0	0	501	619	0	490	39	8	
1	0	0	0	0	513	621	0	488	39	8	
2	0	0	0	0	510	623	0	487	39	8	
3	0	0	0	0	511	624	0	490	38	8	
4	0	0	0	0	512	626	0	491	39	8	
5	0	0	0	0	503	628	0	493	39	8	
6	0	0	0	0	503	630	0	496	39	8	
7	0	0	0	0	512	630	0	495	39	8	
8	0	0	0	0	509	630	0	491	39	8	
9	0	0	0	0	507	630	0	489	39	8	
10	0	0	0	0	510	630	0	490	39	8	
11	0	0	0	0	507	630	0	492	39	8	
12	0	0	0	0	508	630	0	494	39	8	
13	0	0	0	0	516	629	0	494	39	8	
14	0	0	0	0	506	628	0	492	39	8	
15	0	0	0	0	508	628	0	499	39	8	
0	0	0	0	0	504	626	0	490	38	8	
1	0	0	0	0	508	626	0	515	39	8	
2	0	0	0	0	513	625	0	524	39	8	
3	0	0	0	0	509	624	0	542	39	8	
4	0	0	0	0	507	623	0	560	39	8	
5	0	0	0	0	508	623	0	565	39	8	
6	0	0	0	0	498	622	0	576	39	8	
7	0	0	0	0	505	620	0	568	38	8	
8	0	0	0	0	501	619	0	564	39	8	
9	0	0	0	0	506	617	0	569	39	8	
10	0	0	0	0	504	615	0	561	39	8	
11	0	0	0	0	508	613	0	572	38	8	
12	0	0	0	0	508	611	0	569	39	8	
13	0	0	0	0	512	609	0	572	39	8	
14	0	0	0	0	504	608	0	575	39	8	
15	0	0	0	0	504	605	0	566	39	8	
0	0	0	0	0	510	603	0	571	39	8	
1	0	0	0	0	507	600	0	564	39	8	
2	0	0	0	0	511	599	0	564	39	8	
3	0	0	0	0	511	596	0	566	39	8	
4	0	0	0	0	507	595	0	555	39	8	
5	0	0	0	0	505	592	0	563	39	8	
6	0	0	0	0	504	590	0	557	39	8	
7	0	0	0	0	512	587	0	557	39	8	
8	0	0	0	0	505	585	0	560	39	8	
9	0	0	0	0	507	582	0	551	39	8	
10	0	0	0	0	511	579	0	557	39	8	
11	0	0	0	0	508	577	0	551	39	8	
12	0	0	0	0	509	574	0	542	39	8	
13	0	0	0	0	509	570	0	528	39	8	
14	0	0	0	0	507	568	0	515	39	8	
15	0	0	0	0	511	565	0	502	39	8	
0	0	0	0	0	505	562	0	492	39	8	
1	0	0	0	0	512	559	0	483	39	8	
2	0	0	0	0	501	557	0	478	39	8	
3	0	0	0	0	508	554	0	475	39	8	
4	0	0	0	0	512	551	0	473	38	8	
5	0	0	0	0	510	549	0	471	39	8	
6	0	0	0	0	511	547	0	469	38	8	
7	0	0	0	0	507	542	0	466	39	8	
8	0	0	0	0	502	537	0	462	39	8	
9	0	0	0	0	507	533	0	460	39	8	
10	0	0	0	0	515	527	0	459	39	8	
11	0	0	0	0	504	521	0	461	39	8	
12	0	0	0	0	510	516	0	465	39	8	
13	0	0	0	0	508	511	0	468	39	8	
14	0	0	0	0	508	505	0	471	39	8	
15	0	0	0	0	511	499	0	470	39	8	
0	0	0	0	0	507	494	0	473	38	8	
1	0	0	0	0	501	487	0	464	39	8	
2	0	0	0	0	510	481	0	467	39	8	
3	0	0	0	0	504	476	0	467	39	8	
4	0	0	0	0	510	471	0	472	39	8	
5	0	0	0	0	506	464	0	473	39	8	
6	0	0	0	0	511	460	0	478	39	8	
7	0	0	0	0	508	455	0	476	39	8	
8	0	0	0	0	515	451	0	478	39	8	
9	0	0	0	0	506	446	0	495	38	8	
10	0	0	0	0	498	443	0	516	39	8	
11	0	0	0	0	507	440	0	529	38	8	
12	0	0	0	0	504	437	0	546	38	8	
13	0	0	0	0	508	434	0	546	39	8	
14	0	0	0	0	505	431	0	555	38	8	
15	0	0	0	0	508	428	0	555	39	8	
0	0	0	0	0	505	426	0	549	38	8	
1	0	0	0	0	502	423	0	557	39	8	
2	0	0	0	0	516	420	0	551	39	8	
3	0	0	0	0	510	417	0	560	38	8	
4	0	0	0	0	512	415	0	559	39	8	
5	0	0	0	0	509	413	0	552	39	8	
6	0	0	0	0	504	411	0	546	39	8	
7	0	0	0	0	515	408	0	556	39	8	
8	0	0	0	0	507	407	0	548	39	8	
9	0	0	0	0	498	405	0	543	39	8	
10	0	0	0	0	505	403	0	532	39	8	
11	0	0	0	0	512	402	0	521	39	8	
12	0	0	0	0	506	400	0	511	39	8	
13	0	0	0	0	507	398	0	503	39	8	
14	0	0	0	0	512	397	0	494	39	8	
15	0	0	0	0	504	395	0	489	39	8	
0	0	0	0	0	510	394	0	487	39	8	
1	0	0	0	0	507	393	0	482	39	8	
2	0	0	0	0	509	392	0	480	39	8	
3	0	0	0	0	502	391	0	480	39	8	
4	0	0	0	0	509	390	0	480	39	8	
5	0	0	0	0	515	389	0	483	39	8	
6	0	0	0	0	505	388	0	484	39	8	
7	0	0	0	0	503	385	0	484	39	8	
8	0	0	0	0	508	384	0	482	39	8	
9	0	0	0	0	515	381	0	481	38	8	
10	0	0	0	0	504	379	0	481	39	8	
11	0	0	0	0	513	376	0	483	39	8	
12	0	0	0	0	508	374	0	483	38	8	
13	0	0	0	0	505	370	0	484	39	8	
14	0	0	0	0	506	368	0	486	39	8	
15	0	0	0	0	505	365	0	489	38	8	
0	0	0	0	0	507	362	0	486	39	8	
1	0	0	0	0	512	359	0	483	38	8	
2	0	0	0	0	507	357	0	483	39	8	
3	0	0	0	0	512	354	0	487	39	8	
4	0	0	0	0	504	352	0	489	39	8	
5	0	0	0	0	508	350	0	493	39	8	
6	0	0	0	0	510	348	0	515	38	8	
7	0	0	0	0	501	348	0	531	39	8	
8	0	0	0	0	507	347	0	543	39	8	
9	0	0	0	0	507	347	0	570	39	8	
10	0	0	0	0	505	348	0	560	39	8	
11	0	0	0	0	506	349	0	569	39	8	
12	0	0	0	0	513	350	0	575	39	8	
13	0	0	0	0	507	351	0	573	39	8	
14	0	0	0	0	510	353	0	582	39	8	
15	0	0	0	0	509	354	0	571	39	8	
0	0	0	0	0	505	356	0	574	38	8	
1	0	0	0	0	503	358	0	569	39	8	
2	0	0	0	0	508	359	0	563	39	8	
3	0	0	0	0	514	361	0	551	39	8	
4	0	0	0	0	511	363	0	536	39	8	
5	0	0	0	0	509	365	0	522	39	8	
6	0	0	0	0	501	367	0	511	39	8	
7	0	0	0	0	504	369	0	502	39	8	
8	0	0	0	0	502	371	0	496	39	8	
9	0	0	0	0	504	374	0	487	38	8	
10	0	0	0	0	512	376	0	483	39	8	
11	0	0	0	0	511	379	0	482	38	8	
12	0	0	0	0	504	382	0	484	38	8	
13	0	0	0	0	504	385	0	484	38	8	
14	0	0	0	0	512	387	0	487	39	8	
15	0	0	0	0	515	390	0	484	39	8	
0	0	0	0	0	510	394	0	481	38	8	
1	0	0	0	0	509	397	0	477	39	8	
2	0	0	0	0	506	400	0	479	39	8	
3	0	0	0	0	510	403	0	482	39	8	
4	0	0	0	0	508	405	0	484	39	8	
5	0	0	0	0	506	408	0	486	39	8	
6	0	0	0	0	508	411	0	488	39	8	
7	0	0	0	0	515	415	0	489	39	8	
8	0	0	0	0	508	417	0	487	39	8	
9	0	0	0	0	508	421	0	485	39	8	
10	0	0	0	0	502	425	0	485	39	8	
11	0	0	0	0	505	428	0	486	39	8	
12	0	0	0	0	503	431	0	489	39	8	
13	0	0	0	0	507	435	0	491	39	8	
14	0	0	0	0	515	438	0	492	39	8	
15	0	0	0	0	505	442	0	508	39	8	
0	0	0	0	0	505	445	0	527	39	8	
1	0	0	0	0	500	449	0	532	39	8	
2	0	0	0	0	506	452	0	551	39	8	
3	0	0	0	0	509	455	0	555	39	8	
4	0	0	0	0	508	459	0	561	39	8	
5	0	0	0	0	508	463	0	571	39	8	
6	0	0	0	0	510	466	0	568	39	8	
7	0	0	0	0	507	470	0	576	39	8	
8	0	0	0	0	508	473	0	568	39	8	
9	0	0	0	0	514	478	0	564	39	8	
10	0	0	0	0	510	481	0	572	39	8	
11	0	0	0	0	510	484	0	566	39	8	
12	0	0	0	0	501	488	0	558	38	8	
13	0	0	0	0	510	492	0	542	38	8	
14	0	0	0	0	505	496	0	525	38	8	
15	0	0	0	0	514	499	0	510	39	8	
0	0	0	0	0	505	502	0	501	38	8	
1	0	0	0	0	502	505	0	518	38	8	
2	0	0	0	0	507	509	0	522	39	8	
3	0	0	0	0	513	513	0	529	38	8	
4	0	0	0	0	506	516	0	524	39	8	
5	0	0	0	0	507	520	0	519	39	8	
6	0	0	0	0	508	523	0	509	39	8	
7	0	0	0	0	512	526	0	504	38	8	
8	0	0	0	0	512	530	0	494	39	8	
9	0	0	0	0	501	535	0	489	39	8	
10	0	0	0	0	503	538	0	487	39	8	
11	0	0	0	0	504	542	0	487	39	8	
12	0	0	0	0	505	546	0	486	39	8	
13	0	0	0	0	511	551	0	486	39	8	
14	0	0	0	0	508	554	0	486	39	8	
15	0	0	0	0	512	559	0	487	39	8	
0	0	0	0	0	511	562	0	482	39	8	
1	0	0	0	0	507	566	0	480	38	8	
2	0	0	0	0	514	569	0	480	39	8	
3	0	0	0	0	505	574	0	482	39	8	
4	0	0	0	0	495	578	0	483	39	8	
5	0	0	0	0	502	582	0	486	39	8	
6	0	0	0	0	509	585	0	487	39	8	
7	0	0	0	0	511	589	0	486	39	8	
8	0	0	0	0	510	592	0	484	39	8	
9	0	0	0	0	508	595	0	483	38	8	
10	0	0	0	0	504	598	0	483	39	8	
11	0	0	0	0	507	601	0	485	38	8	
12	0	0	0	0	508	604	0	487	38	8	
13	0	0	0	0	511	607	0	488	38	8	
14	0	0	0	0	507	609	0	490	38	8	
15	0	0	0	0	505	613	0	491	39	8	
0	0	0	0	0	507	615	0	520	39	8	
1	0	0	0	0	507	619	0	527	39	8	
2	0	0	0	0	512	621	0	556	39	8	
3	0	0	0	0	505	624	0	561	39	8	
4	0	0	0	0	511	626	0	565	39	8	
5	0	0	0	0	510	629	0	576	39	8	
6	0	0	0	0	504	632	0	579	39	8	
7	0	0	0	0	500	633	0	576	39	8	
8	0	0	0	0	502	634	0	584	39	8	
9	0	0	0	0	504	635	0	576	39	8	
10	0	0	0	0	505	635	0	581	39	8	
11	0	0	0	0	508	636	0	577	39	8	
12	0	0	0	0	512	635	0	568	39	8	
13	0	0	0	0	508	635	0	560	39	8	
14	0	0	0	0	513	635	0	569	39	8	
15	0	0	0	0	513	635	0	563	39	8	
0	0	0	0	0	510	635	0	557	39	8	
1	0	0	0	0	506	634	0	543	39	8	
2	0	0	0	0	503	634	0	529	39	8	
3	0	0	0	0	503	634	0	515	38	8	
4	0	0	0	0	510	633	0	504	38	8	
5	0	0	0	0	505	633	0	496	38	8	
6	0	0	0	0	510	633	0	489	39	8	
7	0	0	0	0	514	633	0	487	38	8	
8	0	0	0	0	508	633	0	480	39	8	
9	0	0	0	0	504	632	0	477	39	8	
10	0	0	0	0	508	632	0	472	39	8	
11	0	0	0	0	503	631	0	480	38	8	
12	0	0	0	0	513	629	0	476	39	8	
13	0	0	0	0	511	628	0	479	39	8	
14	0	0	0	0	511	627	0	481	39	8	
15	0	0	0	0	502	627	0	480	38	8	
0	0	0	0	0	507	625	0	477	39	8	
1	0	0	0	0	511	624	0	476	38	8	
2	0	0	0	0	513	624	0	475	39	8	
3	0	0	0	0	508	623	0	477	39	8	
4	0	0	0	0	504	622	0	477	39	8	
5	0	0	0	0	510	620	0	480	39	8	
6	0	0	0	0	503	619	0	481	39	8	
7	0	0	0	0	503	617	0	481	39	8	
8	0	0	0	0	508	616	0	478	39	8	
9	0	0	0	0	507	615	0	476	39	8	
10	0	0	0	0	507	614	0	479	39	8	
11	0	0	0	0	499	612	0	483	38	8	
12	0	0	0	0	514	610	0	487	38	8	
13	0	0	0	0	509	608	0	512	38	8	
14	0	0	0	0	507	606	0	531	38	8	
15	0	0	0	0	505	603	0	543	38	8	
0	0	0	0	0	507	601	0	559	38	8	
1	0	0	0	0	510	599	0	555	38	8	
2	0	0	0	0	508	598	0	561	39	8	
3	0	0	0	0	517	595	0	566	39	8	
4	0	0	0	0	507	594	0	564	39	8	
5	0	0	0	0	512	592	0	569	39	8	
6	0	0	0	0	503	590	0	558	39	8	
7	0	0	0	0	510	588	0	562	39	8	
8	0	0	0	0	510	587	0	558	39	8	
9	0	0	0	0	510	586	0	549	38	8	
10	0	0	0	0	499	585	0	536	38	8	
11	0	0	0	0	512	583	0	520	38	8	
12	0	0	0	0	508	582	0	506	38	8	
13	0	0	0	0	504	581	0	495	38	8	
14	0	0	0	0	499	579	0	487	38	8	
15	0	0	0	0	508	578	0	483	38	8	
0	0	0	0	0	508	577	0	476	39	8	
1	0	0	0	0	508	575	0	471	39	8	
2	0	0	0	0	511	575	0	469	39	8	
3	0	0	0	0	512	574	0	472	39	8	
4	0	0	0	0	511	572	0	475	39	8	
5	0	0	0	0	504	571	0	479	39	8	
6	0	0	0	0	502	571	0	481	39	8	
7	0	0	0	0	508	568	0	480	39	8	
8	0	0	0	0	503	567	0	480	39	8	
9	0	0	0	0	508	564	0	477	38	8	
10	0	0	0	0	512	562	0	477	39	8	
11	0	0	0	0	509	560	0	481	39	8	
12	0	0	0	0	504	557	0	482	39	8	
13	0	0	0	0	501	554	0	483	39	8	
14	0	0	0	0	511	551	0	486	39	8	
15	0	0	0	0	511	549	0	486	39	8	
0	0	0	0	0	512	546	0	485	39	8	
1	0	0	0	0	511	543	0	484	39	8	
2	0	0	0	0	509	540	0	485	39	8	
3	0	0	0	0	512	538	0	490	38	8	
4	0	0	0	0	501	536	0	491	38	8	
5	0	0	0	0	507	533	0	492	38	8	
6	0	0	0	0	508	531	0	491	38	8	
7	0	0	0	0	509	524	0	489	38	8	
8	0	0	0	0	504	519	0	487	38	8	
9	0	0	0	0	504	511	0	484	39	8	
10	0	0	0	0	506	504	0	484	39	8	
11	0	0	0	0	509	496	0	486	39	8	
12	0	0	0	0	508	488	0	490	39	8	
13	0	0	0	0	509	479	0	491	39	8	
14	0	0	0	0	512	471	0	494	39	8	
15	0	0	0	0	514	460	0	493	39	8	
0	0	0	0	0	513	453	0	494	38	8	
1	0	0	0	0	507	443	0	487	39	8	
2	0	0	0	0	499	435	0	487	39	8	
3	0	0	0	0	511	425	0	487	38	8	
4	0	0	0	0	505	418	0	487	39	8	
5	0	0	0	0	508	408	0	488	38	8	
6	0	0	0	0	503	400	0	487	39	8	
7	0	0	0	0	505	396	0	487	39	8	
8	0	0	0	0	506	392	0	485	39	8	
9	0	0	0	0	500	392	0	482	39	8	
10	0	0	0	0	508	392	0	482	39	8	
11	0	0	0	0	502	393	0	486	39	8	
12	0	0	0	0	504	395	0	492	39	8	
13	0	0	0	0	507	397	0	494	39	8	
14	0	0	0	0	511	399	0	496	38	8	
15	0	0	0	0	511	402	0	494	38	8	
0	0	0	0	0	515	405	0	491	38	8	
1	0	0	0	0	510	408	0	487	38	8	
2	0	0	0	0	504	412	0	488	38	8	
3	0	0	0	0	509	415	0	488	38	8	
4	0	0	0	0	507	419	0	491	39	8	
5	0	0	0	0	514	422	0	491	39	8	
6	0	0	0	0	506	425	0	494	38	8	
7	0	0	0	0	504	428	0	494	39	8	
8	0	0	0	0	508	429	0	511	39	8	
9	0	0	0	0	505	429	0	527	39	8	
10	0	0	0	0	508	430	0	539	39	8	
11	0	0	0	0	511	431	0	562	39	8	
12	0	0	0	0	504	430	0	563	39	8	
13	0	0	0	0	510	430	0	574	39	8	
14	0	0	0	0	510	429	0	578	39	8	
15	0	0	0	0	516	428	0	576	39	8	
0	0	0	0	0	509	427	0	580	39	8	
1	0	0	0	0	505	426	0	570	39	8	
2	0	0	0	0	504	425	0	572	39	8	
3	0	0	0	0	506	424	0	575	39	8	
4	0	0	0	0	508	424	0	572	39	8	
5	0	0	0	0	503	423	0	583	39	8	
6	0	0	0	0	511	422	0	576	39	8	
7	0	0	0	0	508	421	0	582	39	8	
8	0	0	0	0	507	421	0	576	39	8	
9	0	0	0	0	514	420	0	571	39	8	
10	0	0	0	0	504	420	0	579	39	8	
11	0	0	0	0	505	419	0	577	39	8	
12	0	0	0	0	506	418	0	580	38	8	
13	0	0	0	0	500	418	0	592	39	8	
14	0	0	0	0	507	418	0	574	38	8	
15	0	0	0	0	501	417	0	581	39	8	
0	0	0	0	0	509	417	0	569	39	8	
1	0	0	0	0	501	417	0	575	39	8	
2	0	0	0	0	515	417	0	573	39	8	
3	0	0	0	0	506	417	0	572	39	8	
4	0	0	0	0	514	418	0	560	39	8	
5	0	0	0	0	515	417	0	545	39	8	
6	0	0	0	0	513	417	0	530	38	8	
7	0	0	0	0	505	418	0	515	39	8	
8	0	0	0	0	502	419	0	503	39	8	
9	0	0	0	0	506	419	0	494	38	8	
10	0	0	0	0	503	419	0	490	39	8	
11	0	0	0	0	511	420	0	491	39	8	
12	0	0	0	0	505	420	0	508	39	8	
13	0	0	0	0	511	421	0	531	39	8	
14	0	0	0	0	505	422	0	540	39	8	
15	0	0	0	0	505	423	0	563	38	8	
0	0	0	0	0	510	423	0	572	39	8	
1	0	0	0	0	513	425	0	573	39	8	
2	0	0	0	0	512	425	0	562	39	8	
3	0	0	0	0	511	427	0	550	39	8	
4	0	0	0	0	502	428	0	536	39	8	
5	0	0	0	0	502	428	0	525	39	8	
6	0	0	0	0	504	429	0	515	39	8	
7	0	0	0	0	506	431	0	508	39	8	
8	0	0	0	0	506	433	0	503	39	8	
9	0	0	0	0	515	436	0	496	39	8	
10	0	0	0	0	503	438	0	493	39	8	
11	0	0	0	0	506	441	0	491	39	8	
12	0	0	0	0	503	443	0	493	39	8	
13	0	0	0	0	507	445	0	494	39	8	
14	0	0	0	0	511	448	0	498	39	8	
15	0	0	0	0	508	451	0	491	39	8	
0	0	0	0	0	505	454	0	492	39	8	
1	0	0	0	0	509	456	0	484	39	8	
2	0	0	0	0	506	459	0	486	39	8	
3	0	0	0	0	505	462	0	487	39	8	
4	0	0	0	0	505	464	0	491	39	8	
5	0	0	0	0	509	466	0	493	38	8	
6	0	0	0	0	501	467	0	494	38	8	
7	0	0	0	0	507	470	0	495	39	8	
8	0	0	0	0	509	473	0	491	39	8	
9	0	0	0	0	508	476	0	488	39	8	
10	0	0	0	0	504	479	0	486	39	8	
11	0	0	0	0	510	483	0	486	39	8	
12	0	0	0	0	508	485	0	490	39	8	
13	0	0	0	0	508	488	0	492	39	8	
14	0	0	0	0	509	492	0	514	39	8	
15	0	0	0	0	508	495	0	527	38	8	
0	0	0	0	0	507	498	0	535	38	8	
1	0	0	0	0	507	501	0	551	39	8	
2	0	0	0	0	502	503	0	552	39	8	
3	0	0	0	0	509	507	0	563	38	8	
4	0	0	0	0	511	510	0	569	39	8	
5	0	0	0	0	503	512	0	567	39	8	
6	0	0	0	0	507	514	0	576	39	8	
7	0	0	0	0	503	517	0	566	39	8	
8	0	0	0	0	507	519	0	569	38	8	
9	0	0	0	0	505	522	0	566	38	8	
10	0	0	0	0	509	525	0	559	39	8	
11	0	0	0	0	516	527	0	548	38	8	
12	0	0	0	0	505	530	0	533	38	8	
13	0	0	0	0	507	533	0	518	38	8	
14	0	0	0	0	511	534	0	512	39	8	
15	0	0	0	0	512	537	0	498	38	8	
0	0	0	0	0	503	539	0	497	39	8	
1	0	0	0	0	504	542	0	483	38	8	
2	0	0	0	0	509	544	0	481	39	8	
3	0	0	0	0	513	547	0	478	38	8	
4	0	0	0	0	503	548	0	479	39	8	
5	0	0	0	0	510	551	0	478	39	8	
6	0	0	0	0	499	552	0	480	38	8	
7	0	0	0	0	508	555	0	475	39	8	
8	0	0	0	0	507	557	0	474	39	8	
9	0	0	0	0	504	558	0	471	38	8	
10	0	0	0	0	510	560	0	472	39	8	
11	0	0	0	0	519	560	0	473	39	8	
12	0	0	0	0	505	562	0	477	39	8	
13	0	0	0	0	502	563	0	476	39	8	
14	0	0	0	0	505	565	0	489	39	8	
15	0	0	0	0	510	566	0	478	38	8	
0	0	0	0	0	511	567	0	479	39	8	
1	0	0	0	0	509	569	0	472	39	8	
2	0	0	0	0	509	570	0	472	39	8	
3	0	0	0	0	507	572	0	474	39	8	
4	0	0	0	0	508	573	0	479	39	8	
5	0	0	0	0	503	574	0	481	39	8	
6	0	0	0	0	502	575	0	484	39	8	
7	0	0	0	0	512	575	0	502	39	8	
8	0	0	0	0	509	574	0	523	39	8	
9	0	0	0	0	506	573	0	531	39	8	
10	0	0	0	0	510	571	0	551	39	8	
11	0	0	0	0	510	569	0	556	39	8	
12	0	0	0	0	501	567	0	563	39	8	
13	0	0	0	0	504	564	0	573	39	8	
14	0	0	0	0	502	561	0	569	39	8	
15	0	0	0	0	512	559	0	576	39	8	
0	0	0	0	0	513	557	0	568	39	8	
1	0	0	0	0	509	554	0	564	39	8	
2	0	0	0	0	505	552	0	571	39	8	
3	0	0	0	0	506	549	0	564	39	8	
4	0	0	0	0	508	547	0	556	39	8	
5	0	0	0	0	512	543	0	542	39	8	
6	0	0	0	0	507	541	0	521	39	8	
7	0	0	0	0	506	541	0	510	39	8	
8	0	0	0	0	509	541	0	502	39	8	
9	0	0	0	0	508	543	0	521	39	8	
10	0	0	0	0	508	545	0	522	39	8	
11	0	0	0	0	508	549	0	530	39	8	
12	0	0	0	0	508	551	0	523	39	8	
13	0	0	0	0	514	555	0	516	39	8	
14	0	0	0	0	507	558	0	504	39	8	
15	0	0	0	0	511	562	0	498	39	8	
0	0	0	0	0	504	565	0	485	39	8	
1	0	0	0	0	505	570	0	479	39	8	
2	0	0	0	0	514	573	0	473	39	8	
3	0	0	0	0	505	577	0	473	39	8	
4	0	0	0	0	515	582	0	470	39	8	
5	0	0	0	0	503	585	0	470	38	8	
6	0	0	0	0	504	588	0	470	39	8	
7	0	0	0	0	501	590	0	470	38	8	
8	0	0	0	0	507	591	0	466	38	8	
9	0	0	0	0	513	589	0	476	38	8	
10	0	0	0	0	509	588	0	463	39	8	
11	0	0	0	0	508	586	0	482	38	8	
12	0	0	0	0	501	584	0	469	38	8	
13	0	0	0	0	507	581	0	475	38	8	
14	0	0	0	0	506	579	0	472	38	8	
15	0	0	0	0	511	576	0	471	38	8	
0	0	0	0	0	512	573	0	464	39	8	
1	0	0	0	0	508	569	0	461	38	8	
2	0	0	0	0	504	566	0	459	39	8	
3	0	0	0	0	508	563	0	460	38	8	
4	0	0	0	0	507	561	0	462	38	8	
5	0	0	0	0	506	558	0	465	39	8	
6	0	0	0	0	510	555	0	466	38	8	
7	0	0	0	0	508	552	0	471	38	8	
8	0	0	0	0	505	550	0	489	39	8	
9	0	0	0	0	501	548	0	505	39	8	
10	0	0	0	0	502	547	0	513	39	8	
11	0	0	0	0	511	547	0	541	39	8	
12	0	0	0	0	506	546	0	539	39	8	
13	0	0	0	0	510	546	0	556	39	8	
14	0	0	0	0	509	546	0	551	39	8	
15	0	0	0	0	508	546	0	554	39	8	
0	0	0	0	0	504	546	0	553	39	8	
1	0	0	0	0	508	546	0	550	39	8	
2	0	0	0	0	508	546	0	552	39	8	
3	0	0	0	0	508	546	0	551	39	8	
4	0	0	0	0	511	546	0	543	39	8	
5	0	0	0	0	508	546	0	536	39	8	
6	0	0	0	0	504	546	0	544	39	8	
7	0	0	0	0	504	544	0	542	39	8	
8	0	0	0	0	506	543	0	533	38	8	
9	0	0	0	0	513	540	0	522	39	8	
10	0	0	0	0	500	538	0	505	39	8	
11	0	0	0	0	509	535	0	493	39	8	
12	0	0	0	0	509	532	0	481	39	8	
13	0	0	0	0	512	529	0	476	39	8	
14	0	0	0	0	504	527	0	468	39	8	
15	0	0	0	0	505	523	0	467	39	8	
0	0	0	0	0	511	520	0	460	39	8	
1	0	0	0	0	509	516	0	457	39	8	
2	0	0	0	0	510	513	0	471	39	8	
3	0	0	0	0	519	510	0	500	39	8	
4	0	0	0	0	512	506	0	510	39	8	
5	0	0	0	0	501	503	0	518	39	8	
6	0	0	0	0	510	500	0	531	39	8	
7	0	0	0	0	507	497	0	539	39	8	
8	0	0	0	0	504	495	0	533	39	8	
9	0	0	0	0	505	492	0	536	39	8	
10	0	0	0	0	504	491	0	512	39	8	
11	0	0	0	0	506	489	0	501	39	8	
12	0	0	0	0	501	487	0	489	39	8	
13	0	0	0	0	501	486	0	483	39	8	
14	0	0	0	0	509	484	0	477	39	8	
15	0	0	0	0	509	483	0	475	39	8	
0	0	0	0	0	506	482	0	467	39	8	
1	0	0	0	0	510	480	0	467	39	8	
2	0	0	0	0	510	479	0	464	39	8	
3	0	0	0	0	507	476	0	465	39	8	
4	0	0	0	0	508	475	0	467	38	8	
5	0	0	0	0	507	473	0	468	39	8	
6	0	0	0	0	507	472	0	469	39	8	
7	0	0	0	0	508	471	0	469	39	8	
8	0	0	0	0	504	471	0	465	39	8	
9	0	0	0	0	505	470	0	463	39	8	
10	0	0	0	0	510	469	0	463	39	8	
11	0	0	0	0	509	468	0	464	39	8	
12	0	0	0	0	511	468	0	467	39	8	
13	0	0	0	0	509	467	0	470	38	8	
14	0	0	0	0	515	467	0	473	38	8	
15	0	0	0	0	509	466	0	469	38	8	
0	0	0	0	0	503	466	0	467	38	8	
1	0	0	0	0	501	466	0	463	39	8	
2	0	0	0	0	505	465	0	477	39	8	
3	0	0	0	0	502	465	0	467	39	8	
4	0	0	0	0	508	465	0	470	39	8	
5	0	0	0	0	511	464	0	489	39	8	
6	0	0	0	0	508	464	0	516	39	8	
7	0	0	0	0	508	464	0	525	39	8	
8	0	0	0	0	505	463	0	545	39	8	
9	0	0	0	0	511	463	0	546	38	8	
10	0	0	0	0	513	462	0	552	39	8	
11	0	0	0	0	503	461	0	560	38	8	
12	0	0	0	0	507	460	0	556	39	8	
13	0	0	0	0	499	459	0	566	38	8	
14	0	0	0	0	516	458	0	562	39	8	
15	0	0	0	0	510	457	0	563	39	8	
0	0	0	0	0	509	455	0	562	39	8	
1	0	0	0	0	510	455	0	552	38	8	
2	0	0	0	0	504	454	0	542	39	8	
3	0	0	0	0	506	453	0	527	39	8	
4	0	0	0	0	504	452	0	514	38	8	
5	0	0	0	0	509	451	0	512	39	8	
6	0	0	0	0	513	450	0	496	39	8	
7	0	0	0	0	504	450	0	505	39	8	
8	0	0	0	0	499	450	0	485	39	8	
9	0	0	0	0	505	451	0	483	39	8	
10	0	0	0	0	503	452	0	481	39	8	
11	0	0	0	0	510	454	0	480	39	8	
12	0	0	0	0	512	454	0	479	39	8	
13	0	0	0	0	510	455	0	479	38	8	
14	0	0	0	0	507	455	0	478	38	8	
15	0	0	0	0	504	456	0	478	39	8	
0	0	0	0	0	507	457	0	474	39	8	
1	0	0	0	0	504	459	0	471	39	8	
2	0	0	0	0	509	460	0	471	39	8	
3	0	0	0	0	511	461	0	474	39	8	
4	0	0	0	0	511	462	0	478	39	8	
5	0	0	0	0	506	463	0	483	39	8	
6	0	0	0	0	512	465	0	487	39	8	
7	0	0	0	0	511	460	0	486	39	8	
8	0	0	0	0	504	456	0	483	39	8	
9	0	0	0	0	511	448	0	483	39	8	
10	0	0	0	0	502	442	0	489	39	8	
11	0	0	0	0	509	432	0	488	39	8	
12	0	0	0	0	506	423	0	494	39	8	
13	0	0	0	0	515	412	0	494	39	8	
14	0	0	0	0	505	402	0	504	39	8	
15	0	0	0	0	510	391	0	496	39	8	
0	0	0	0	0	508	382	0	492	39	8	
1	0	0	0	0	505	370	0	489	39	8	
2	0	0	0	0	500	361	0	489	39	8	
3	0	0	0	0	504	349	0	492	39	8	
4	0	0	0	0	511	339	0	496	39	8	
5	0	0	0	0	510	328	0	496	39	8	
6	0	0	0	0	506	319	0	497	38	8	
7	0	0	0	0	511	320	0	492	39	8	
8	0	0	0	0	504	322	0	488	39	8	
9	0	0	0	0	507	331	0	485	39	8	
10	0	0	0	0	503	340	0	485	39	8	
11	0	0	0	0	507	354	0	486	39	8	
12	0	0	0	0	505	366	0	488	39	8	
13	0	0	0	0	508	384	0	489	39	8	
14	0	0	0	0	504	399	0	492	39	8	
15	0	0	0	0	508	417	0	491	39	8	
0	0	0	0	0	512	432	0	487	39	8	
1	0	0	0	0	511	452	0	487	39	8	
2	0	0	0	0	510	467	0	487	39	8	
3	0	0	0	0	513	486	0	488	39	8	
4	0	0	0	0	507	502	0	489	39	8	
5	0	0	0	0	509	521	0	490	39	8	
6	0	0	0	0	503	537	0	506	39	8	
7	0	0	0	0	518	550	0	526	39	8	
8	0	0	0	0	508	560	0	533	39	8	
9	0	0	0	0	508	569	0	553	39	8	
10	0	0	0	0	507	577	0	560	39	8	
11	0	0	0	0	504	583	0	567	39	8	
12	0	0	0	0	504	589	0	576	39	8	
13	0	0	0	0	513	594	0	571	39	8	
14	0	0	0	0	504	598	0	580	39	8	
15	0	0	0	0	508	602	0	574	39	8	
0	0	0	0	0	507	606	0	572	39	8	
1	0	0	0	0	512	610	0	572	39	8	
2	0	0	0	0	512	613	0	564	39	8	
3	0	0	0	0	507	616	0	572	39	7	
4	0	0	0	0	508	619	0	571	39	8	
5	0	0	0	0	511	623	0	573	38	8	
6	0	0	0	0	505	624	0	574	38	8	
7	0	0	0	0	504	625	0	566	38	8	
8	0	0	0	0	506	625	0	569	38	8	
9	0	0	0	0	506	625	0	563	39	8	
10	0	0	0	0	503	625	0	562	39	8	
11	0	0	0	0	505	624	0	572	39	7	
12	0	0	0	0	506	622	0	563	39	7	
13	0	0	0	0	510	621	0	557	39	8	
14	0	0	0	0	509	619	0	564	38	8	
15	0	0	0	0	508	616	0	563	38	8	
0	0	0	0	0	518	615	0	554	39	8	
1	0	0	0	0	512	612	0	544	38	8	
2	0	0	0	0	503	611	0	529	39	8	
3	0	0	0	0	507	608	0	517	39	7	
4	0	0	0	0	507	607	0	507	39	7	
5	0	0	0	0	507	605	0	500	39	8	
6	0	0	0	0	512	603	0	495	39	8	
7	0	0	0	0	507	600	0	491	39	8	
8	0	0	0	0	508	599	0	486	39	8	
9	0	0	0	0	511	598	0	483	38	8	
10	0	0	0	0	505	596	0	483	39	8	
11	0	0	0	0	507	595	0	485	39	8	
12	0	0	0	0	505	593	0	484	39	7	
13	0	0	0	0	512	592	0	486	38	8	
14	0	0	0	0	499	591	0	485	39	8	
15	0	0	0	0	511	590	0	485	39	8	
0	0	0	0	0	505	588	0	481	39	8	
1	0	0	0	0	505	587	0	477	39	8	
2	0	0	0	0	507	586	0	475	39	8	
3	0	0	0	0	504	584	0	477	38	8	
4	0	0	0	0	512	584	0	481	39	7	
5	0	0	0	0	502	582	0	484	39	7	
6	0	0	0	0	510	581	0	485	39	8	
7	0	0	0	0	513	580	0	485	39	8	
8	0	0	0	0	512	579	0	480	39	8	
9	0	0	0	0	508	577	0	476	39	8	
10	0	0	0	0	512	575	0	477	39	8	
11	0	0	0	0	506	574	0	478	39	8	
12	0	0	0	0	510	572	0	481	39	7	
13	0	0	0	0	508	571	0	499	39	7	
14	0	0	0	0	508	569	0	524	39	8	
15	0	0	0	0	499	567	0	530	39	8	
0	0	0	0	0	511	565	0	549	39	8	
1	0	0	0	0	509	563	0	547	39	8	
2	0	0	0	0	504	562	0	553	39	8	
3	0	0	0	0	505	560	0	561	39	8	
4	0	0	0	0	514	559	0	574	39	8	
5	0	0	0	0	507	557	0	566	39	8	
6	0	0	0	0	512	556	0	565	39	8	
7	0	0	0	0	503	553	0	564	39	8	
8	0	0	0	0	502	550	0	568	39	8	
9	0	0	0	0	505	546	0	553	39	8	
10	0	0	0	0	507	543	0	544	39	8	
11	0	0	0	0	510	539	0	528	39	8	
12	0	0	0	0	504	534	0	521	39	8	
13	0	0	0	0	512	530	0	502	39	8	
14	0	0	0	0	512	526	0	497	39	8	
15	0	0	0	0	507	522	0	489	39	8	
0	0	0	0	0	506	518	0	486	39	8	
1	0	0	0	0	509	513	0	480	38	8	
2	0	0	0	0	501	510	0	488	39	8	
3	0	0	0	0	511	506	0	476	38	8	
4	0	0	0	0	505	502	0	474	38	8	
5	0	0	0	0	504	496	0	473	39	8	
6	0	0	0	0	509	493	0	472	38	8	
7	0	0	0	0	508	490	0	469	38	8	
8	0	0	0	0	507	487	0	466	39	8	
9	0	0	0	0	504	485	0	462	39	8	
10	0	0	0	0	508	483	0	461	39	8	
11	0	0	0	0	512	481	0	462	39	8	
12	0	0	0	0	509	479	0	465	39	8	
13	0	0	0	0	514	477	0	468	38	8	
14	0	0	0	0	508	476	0	470	38	8	
15	0	0	0	0	513	474	0	468	38	8	
0	0	0	0	0	506	473	0	465	38	8	
1	0	0	0	0	505	472	0	462	39	8	
2	0	0	0	0	510	471	0	462	39	8	
3	0	0	0	0	502	468	0	465	39	8	
4	0	0	0	0	507	467	0	471	39	8	
5	0	0	0	0	506	465	0	471	38	8	
6	0	0	0	0	513	464	0	483	39	8	
7	0	0	0	0	502	462	0	505	39	8	
8	0	0	0	0	502	460	0	513	38	8	
9	0	0	0	0	502	455	0	530	38	8	
10	0	0	0	0	508	452	0	541	39	8	
11	0	0	0	0	508	448	0	545	39	8	
12	0	0	0	0	504	444	0	557	39	8	
13	0	0	0	0	505	440	0	553	38	8	
14	0	0	0	0	507	438	0	558	39	8	
15	0	0	0	0	510	432	0	560	39	8	
0	0	0	0	0	509	430	0	551	39	8	
1	0	0	0	0	508	425	0	556	39	8	
2	0	0	0	0	511	422	0	548	39	8	
3	0	0	0	0	509	418	0	542	39	8	
4	0	0	0	0	510	415	0	527	38	8	
5	0	0	0	0	504	411	0	515	39	8	
6	0	0	0	0	511	407	0	504	38	8	
7	0	0	0	0	506	404	0	496	39	8	
8	0	0	0	0	504	402	0	489	39	8	
9	0	0	0	0	512	400	0	486	39	8	
10	0	0	0	0	507	399	0	483	39	8	
11	0	0	0	0	505	398	0	482	39	8	
12	0	0	0	0	508	397	0	479	39	8	
13	0	0	0	0	507	396	0	478	39	8	
14	0	0	0	0	507	396	0	476	39	8	
15	0	0	0	0	509	395	0	475	39	8	
0	0	0	0	0	512	395	0	471	39	8	
1	0	0	0	0	504	395	0	470	39	8	
2	0	0	0	0	502	395	0	470	39	8	
3	0	0	0	0	507	394	0	472	39	8	
4	0	0	0	0	505	394	0	476	39	8	
5	0	0	0	0	507	394	0	480	39	8	
6	0	0	0	0	509	393	0	481	39	8	
7	0	0	0	0	508	393	0	479	39	8	
8	0	0	0	0	502	393	0	474	39	8	
9	0	0	0	0	510	391	0	472	39	8	
10	0	0	0	0	511	391	0	474	39	8	
11	0	0	0	0	511	391	0	478	39	8	
12	0	0	0	0	503	390	0	482	39	8	
13	0	0	0	0	509	389	0	482	39	8	
14	0	0	0	0	511	388	0	486	39	8	
15	0	0	0	0	504	387	0	489	39	8	
0	0	0	0	0	514	387	0	513	39	8	
1	0	0	0	0	511	386	0	523	39	8	
2	0	0	0	0	504	385	0	537	39	8	
3	0	0	0	0	502	384	0	556	39	8	
4	0	0	0	0	518	384	0	556	38	8	
5	0	0	0	0	507	383	0	570	39	8	
6	0	0	0	0	507	383	0	567	39	8	
7	0	0	0	0	505	383	0	567	39	8	
8	0	0	0	0	514	383	0	569	39	8	
9	0	0	0	0	504	384	0	560	39	8	
10	0	0	0	0	508	385	0	566	39	8	
11	0	0	0	0	510	385	0	561	39	8	
12	0	0	0	0	510	386	0	556	39	8	
13	0	0	0	0	507	388	0	545	39	8	
14	0	0	0	0	508	390	0	529	39	8	
15	0	0	0	0	501	391	0	515	39	8	
0	0	0	0	0	508	392	0	504	39	8	
1	0	0	0	0	505	394	0	496	38	8	
2	0	0	0	0	504	395	0	503	39	8	
3	0	0	0	0	505	396	0	530	39	8	
4	0	0	0	0	512	398	0	539	39	8	
5	0	0	0	0	515	399	0	557	38	8	
6	0	0	0	0	511	400	0	563	39	8	
7	0	0	0	0	504	403	0	560	39	8	
8	0	0	0	0	506	405	0	554	39	8	
9	0	0	0	0	512	408	0	537	38	8	
10	0	0	0	0	505	411	0	527	39	8	
11	0	0	0	0	508	415	0	515	39	8	
12	0	0	0	0	510	417	0	510	39	8	
13	0	0	0	0	513	421	0	501	39	8	
14	0	0	0	0	510	425	0	497	39	8	
15	0	0	0	0	509	429	0	494	39	8	
0	0	0	0	0	505	432	0	490	39	8	
1	0	0	0	0	504	436	0	486	38	8	
2	0	0	0	0	508	439	0	499	39	8	
3	0	0	0	0	509	443	0	485	39	8	
4	0	0	0	0	508	446	0	489	39	8	
5	0	0	0	0	511	450	0	489	38	8	
6	0	0	0	0	506	453	0	504	38	8	
7	0	0	0	0	503	457	0	494	38	8	
8	0	0	0	0	501	461	0	489	38	8	
9	0	0	0	0	506	465	0	487	39	8	
10	0	0	0	0	515	469	0	486	39	8	
11	0	0	0	0	504	474	0	487	39	8	
12	0	0	0	0	511	478	0	490	39	8	
13	0	0	0	0	505	483	0	492	38	8	
14	0	0	0	0	509	486	0	492	39	8	
15	0	0	0	0	497	491	0	493	39	8	
0	0	0	0	0	506	495	0	487	39	8	
1	0	0	0	0	507	499	0	484	39	8	
2	0	0	0	0	509	503	0	486	39	8	
3	0	0	0	0	508	508	0	487	39	8	
4	0	0	0	0	499	512	0	507	38	8	
5	0	0	0	0	503	517	0	532	39	8	
6	0	0	0	0	512	521	0	543	38	8	
7	0	0	0	0	508	525	0	564	39	8	
8	0	0	0	0	510	529	0	566	39	8	
9	0	0	0	0	507	533	0	571	38	8	
10	0	0	0	0	510	536	0	579	39	8	
11	0	0	0	0	514	540	0	572	39	8	
12	0	0	0	0	506	543	0	592	39	8	
13	0	0	0	0	515	547	0	580	39	8	
14	0	0	0	0	513	551	0	582	38	8	
15	0	0	0	0	513	556	0	583	39	8	
0	0	0	0	0	509	559	0	572	38	8	
1	0	0	0	0	502	563	0	562	39	8	
2	0	0	0	0	510	566	0	547	39	8	
3	0	0	0	0	505	569	0	533	39	8	
4	0	0	0	0	504	573	0	523	39	8	
5	0	0	0	0	504	577	0	517	39	8	
6	0	0	0	0	507	580	0	511	39	8	
7	0	0	0	0	508	583	0	506	38	8	
8	0	0	0	0	506	585	0	500	39	8	
9	0	0	0	0	502	588	0	495	39	8	
10	0	0	0	0	503	590	0	496	39	8	
11	0	0	0	0	508	592	0	495	39	8	
12	0	0	0	0	513	594	0	496	39	8	
13	0	0	0	0	509	596	0	496	39	8	
14	0	0	0	0	509	598	0	498	39	8	
15	0	0	0	0	504	600	0	499	39	8	
0	0	0	0	0	502	601	0	496	39	8	
1	0	0	0	0	512	603	0	492	39	8	
2	0	0	0	0	507	604	0	493	39	8	
3	0	0	0	0	501	606	0	495	39	8	
4	0	0	0	0	514	607	0	499	39	8	
5	0	0	0	0	511	608	0	499	39	8	
6	0	0	0	0	509	609	0	500	39	8	
7	0	0	0	0	510	611	0	500	39	8	
8	0	0	0	0	506	611	0	494	39	8	
9	0	0	0	0	508	612	0	494	39	8	
10	0	0	0	0	502	614	0	492	39	8	
11	0	0	0	0	500	615	0	495	39	8	
12	0	0	0	0	509	615	0	497	38	8	
13	0	0	0	0	509	617	0	509	38	8	
14	0	0	0	0	508	617	0	536	38	8	
15	0	0	0	0	510	618	0	543	39	8	
0	0	0	0	0	504	618	0	558	39	8	
1	0	0	0	0	515	619	0	568	38	8	
2	0	0	0	0	513	619	0	571	39	8	
3	0	0	0	0	509	619	0	583	39	8	
4	0	0	0	0	508	620	0	577	39	8	
5	0	0	0	0	513	620	0	583	38	8	
6	0	0	0	0	508	620	0	585	39	8	
7	0	0	0	0	505	621	0	582	38	8	
8	0	0	0	0	504	622	0	588	38	8	
9	0	0	0	0	504	622	0	571	39	8	
10	0	0	0	0	508	621	0	562	39	8	
11	0	0	0	0	505	621	0	545	39	8	
12	0	0	0	0	494	621	0	540	39	8	
13	0	0	0	0	502	621	0	533	39	8	
14	0	0	0	0	512	620	0	523	38	8	
15	0	0	0	0	511	620	0	514	38	8	
0	0	0	0	0	509	620	0	507	38	8	
1	0	0	0	0	514	620	0	502	38	8	
2	0	0	0	0	505	619	0	499	39	8	
3	0	0	0	0	506	619	0	496	38	8	
4	0	0	0	0	510	618	0	494	38	8	
5	0	0	0	0	508	618	0	493	39	8	
6	0	0	0	0	505	618	0	494	39	8	
7	0	0	0	0	505	618	0	493	38	8	
8	0	0	0	0	504	618	0	491	39	8	
9	0	0	0	0	511	618	0	485	39	8	
10	0	0	0	0	515	618	0	486	39	8	
11	0	0	0	0	509	618	0	484	38	8	
12	0	0	0	0	504	617	0	487	38	8	
13	0	0	0	0	507	617	0	485	38	8	
14	0	0	0	0	508	616	0	488	38	8	
15	0	0	0	0	500	616	0	483	39	8	
0	0	0	0	0	505	616	0	483	39	8	
1	0	0	0	0	513	615	0	474	39	8	
2	0	0	0	0	506	615	0	474	39	8	
3	0	0	0	0	506	615	0	474	39	8	
4	0	0	0	0	503	615	0	476	39	8	
5	0	0	0	0	507	615	0	479	39	8	
6	0	0	0	0	506	614	0	481	39	8	
7	0	0	0	0	510	612	0	482	39	8	
8	0	0	0	0	502	611	0	479	39	8	
9	0	0	0	0	503	609	0	476	38	8	
10	0	0	0	0	507	607	0	476	39	8	
11	0	0	0	0	509	604	0	478	39	8	
12	0	0	0	0	511	601	0	481	39	8	
13	0	0	0	0	514	598	0	483	39	8	
14	0	0	0	0	507	595	0	484	39	8	
15	0	0	0	0	503	592	0	486	39	8	
0	0	0	0	0	508	589	0	483	39	8	
1	0	0	0	0	507	586	0	482	39	8	
2	0	0	0	0	508	583	0	479	39	8	
3	0	0	0	0	508	579	0	483	39	8	
4	0	0	0	0	512	576	0	483	39	8	
5	0	0	0	0	511	573	0	491	39	8	
6	0	0	0	0	504	570	0	487	39	8	
7	0	0	0	0	508	567	0	499	39	8	
8	0	0	0	0	499	564	0	482	39	8	
9	0	0	0	0	515	560	0	480	39	8	
10	0	0	0	0	509	556	0	480	39	8	
11	0	0	0	0	504	553	0	481	39	8	
12	0	0	0	0	512	549	0	483	39	8	
13	0	0	0	0	507	544	0	485	39	8	
14	0	0	0	0	510	541	0	487	39	8	
15	0	0	0	0	510	537	0	486	39	8	
0	0	0	0	0	509	533	0	481	39	8	
1	0	0	0	0	511	529	0	480	39	8	
2	0	0	0	0	507	526	0	497	39	8	
3	0	0	0	0	508	522	0	521	39	8	
4	0	0	0	0	505	519	0	531	39	8	
5	0	0	0	0	506	515	0	556	39	8	
6	0	0	0	0	504	512	0	560	39	8	
7	0	0	0	0	506	508	0	565	38	8	
8	0	0	0	0	499	504	0	569	39	8	
9	0	0	0	0	509	500	0	560	39	8	
10	0	0	0	0	502	497	0	568	39	8	
11	0	0	0	0	512	492	0	568	39	8	
12	0	0	0	0	504	489	0	570	39	8	
13	0	0	0	0	500	484	0	574	39	8	
14	0	0	0	0	510	481	0	567	39	8	
15	0	0	0	0	511	477	0	575	39	8	
0	0	0	0	0	512	474	0	567	38	8	
1	0	0	0	0	509	469	0	565	38	8	
2	0	0	0	0	502	466	0	572	39	8	
3	0	0	0	0	506	463	0	567	38	8	
4	0	0	0	0	504	460	0	577	38	8	
5	0	0	0	0	510	456	0	570	38	8	
6	0	0	0	0	510	453	0	571	38	8	
7	0	0	0	0	512	450	0	574	38	8	
8	0	0	0	0	511	448	0	567	38	8	
9	0	0	0	0	509	447	0	572	38	8	
10	0	0	0	0	509	445	0	567	39	8	
11	0	0	0	0	511	443	0	557	38	8	
12	0	0	0	0	509	443	0	545	38	8	
13	0	0	0	0	508	442	0	527	38	8	
14	0	0	0	0	506	441	0	515	38	8	
15	0	0	0	0	502	440	0	504	39	8	
0	0	0	0	0	502	438	0	494	39	8	
1	0	0	0	0	508	436	0	483	39	8	
2	0	0	0	0	507	436	0	484	39	8	
3	0	0	0	0	505	436	0	480	39	8	
4	0	0	0	0	509	435	0	481	39	8	
5	0	0	0	0	504	435	0	478	39	8	
6	0	0	0	0	509	434	0	480	39	8	
7	0	0	0	0	507	433	0	477	39	8	
8	0	0	0	0	510	432	0	474	39	8	
9	0	0	0	0	502	429	0	467	39	8	
10	0	0	0	0	512	428	0	469	39	8	
11	0	0	0	0	508	425	0	470	39	8	
12	0	0	0	0	506	423	0	473	39	8	
13	0	0	0	0	503	420	0	475	39	8	
14	0	0	0	0	514	417	0	476	39	8	
15	0	0	0	0	512	414	0	474	39	8	
0	0	0	0	0	503	412	0	471	39	8	
1	0	0	0	0	503	409	0	467	39	8	
2	0	0	0	0	505	407	0	468	39	8	
3	0	0	0	0	506	404	0	470	39	8	
4	0	0	0	0	509	402	0	473	39	8	
5	0	0	0	0	512	399	0	474	39	8	
6	0	0	0	0	507	396	0	477	39	8	
7	0	0	0	0	505	394	0	477	39	8	
8	0	0	0	0	511	393	0	497	39	8	
9	0	0	0	0	507	392	0	510	39	8	
10	0	0	0	0	511	391	0	522	39	8	
11	0	0	0	0	498	390	0	544	39	8	
12	0	0	0	0	507	389	0	547	39	8	
13	0	0	0	0	511	388	0	559	39	8	
14	0	0	0	0	503	388	0	563	39	8	
15	0	0	0	0	512	386	0	557	39	8	
0	0	0	0	0	515	386	0	563	39	8	
1	0	0	0	0	515	386	0	553	39	8	
2	0	0	0	0	506	386	0	556	39	8	
3	0	0	0	0	507	385	0	560	39	8	
4	0	0	0	0	508	385	0	558	39	8	
5	0	0	0	0	513	385	0	567	39	8	
6	0	0	0	0	512	385	0	556	39	8	
7	0	0	0	0	506	394	0	562	39	8	
8	0	0	0	0	502	401	0	557	39	8	
9	0	0	0	0	507	416	0	549	39	8	
10	0	0	0	0	506	426	0	537	39	8	
11	0	0	0	0	497	442	0	524	39	8	
12	0	0	0	0	516	456	0	510	38	8	
13	0	0	0	0	504	475	0	505	38	8	
14	0	0	0	0	503	490	0	496	39	8	
15	0	0	0	0	509	509	0	495	39	8	
0	0	0	0	0	511	525	0	490	39	8	
1	0	0	0	0	508	544	0	489	38	8	
2	0	0	0	0	512	560	0	487	39	8	
3	0	0	0	0	503	581	0	490	39	8	
4	0	0	0	0	503	596	0	491	39	8	
5	0	0	0	0	510	615	0	494	39	8	
6	0	0	0	0	503	630	0	493	38	8	
7	0	0	0	0	519	631	0	493	38	8	
8	0	0	0	0	507	631	0	489	39	8	
9	0	0	0	0	507	623	0	492	39	8	
10	0	0	0	0	506	615	0	491	39	8	
11	0	0	0	0	506	599	0	496	39	8	
12	0	0	0	0	510	585	0	493	38	8	
13	0	0	0	0	508	566	0	505	39	8	
14	0	0	0	0	505	550	0	496	38	8	
15	0	0	0	0	502	530	0	497	39	8	
0	0	0	0	0	512	513	0	496	39	8	
1	0	0	0	0	513	492	0	495	38	8	
2	0	0	0	0	509	474	0	496	39	8	
3	0	0	0	0	511	453	0	500	39	8	
4	0	0	0	0	505	434	0	501	39	8	
5	0	0	0	0	500	412	0	510	39	8	
6	0	0	0	0	499	394	0	502	39	8	
7	0	0	0	0	509	383	0	515	39	8	
8	0	0	0	0	511	374	0	540	39	8	
9	0	0	0	0	508	369	0	548	39	8	
10	0	0	0	0	512	366	0	567	39	8	
11	0	0	0	0	510	365	0	578	39	8	
12	0	0	0	0	503	365	0	582	39	8	
13	0	0	0	0	509	367	0	595	39	8	
14	0	0	0	0	507	368	0	588	39	8	
15	0	0	0	0	505	371	0	594	39	8	
0	0	0	0	0	507	373	0	595	38	8	
1	0	0	0	0	511	376	0	591	38	8	
2	0	0	0	0	502	379	0	596	39	8	
3	0	0	0	0	515	383	0	605	39	8	
4	0	0	0	0	503	386	0	591	39	8	
5	0	0	0	0	511	390	0	592	39	8	
6	0	0	0	0	500	393	0	587	38	8	
7	0	0	0	0	506	398	0	595	39	8	
8	0	0	0	0	507	402	0	585	39	8	
9	0	0	0	0	514	407	0	577	39	8	
10	0	0	0	0	506	411	0	561	39	8	
11	0	0	0	0	503	415	0	547	39	8	
12	0	0	0	0	514	419	0	534	39	8	
13	0	0	0	0	504	423	0	524	39	8	
14	0	0	0	0	500	427	0	517	39	8	
15	0	0	0	0	519	432	0	510	39	8	
0	0	0	0	0	512	435	0	507	39	8	
1	0	0	0	0	509	440	0	501	39	8	
2	0	0	0	0	511	444	0	500	39	8	
3	0	0	0	0	500	448	0	500	39	8	
4	0	0	0	0	507	452	0	501	39	8	
5	0	0	0	0	510	456	0	501	39	8	
6	0	0	0	0	511	460	0	504	39	8	
7	0	0	0	0	510	465	0	502	39	8	
8	0	0	0	0	509	470	0	499	39	8	
9	0	0	0	0	508	475	0	498	39	8	
10	0	0	0	0	503	480	0	497	39	8	
11	0	0	0	0	505	484	0	499	39	8	
12	0	0	0	0	510	488	0	500	39	8	
13	0	0	0	0	509	493	0	501	38	8	
14	0	0	0	0	505	497	0	500	38	8	
15	0	0	0	0	508	503	0	501	39	8	
0	0	0	0	0	510	507	0	498	39	8	
1	0	0	0	0	504	511	0	497	39	8	
2	0	0	0	0	508	515	0	496	39	8	
3	0	0	0	0	511	521	0	500	39	8	
4	0	0	0	0	507	526	0	500	39	8	
5	0	0	0	0	504	530	0	509	39	8	
6	0	0	0	0	509	535	0	533	39	8	
7	0	0	0	0	511	538	0	545	38	8	
8	0	0	0	0	505	542	0	555	39	8	
9	0	0	0	0	501	546	0	572	39	8	
10	0	0	0	0	502	548	0	568	39	8	
11	0	0	0	0	503	551	0	580	39	8	
12	0	0	0	0	512	554	0	576	39	8	
13	0	0	0	0	506	557	0	582	39	8	
14	0	0	0	0	504	560	0	583	39	8	
15	0	0	0	0	507	563	0	583	39	8	
0	0	0	0	0	512	566	0	588	39	8	
1	0	0	0	0	506	569	0	584	39	8	
2	0	0	0	0	508	571	0	575	39	8	
3	0	0	0	0	511	574	0	563	39	8	
4	0	0	0	0	507	576	0	547	39	8	
5	0	0	0	0	511	579	0	535	39	8	
6	0	0	0	0	513	581	0	522	39	8	
7	0	0	0	0	509	583	0	512	39	8	
8	0	0	0	0	515	584	0	504	39	8	
9	0	0	0	0	504	585	0	497	38	8	
10	0	0	0	0	501	587	0	494	39	8	
11	0	0	0	0	505	588	0	492	38	8	
12	0	0	0	0	509	589	0	491	38	8	
13	0	0	0	0	511	590	0	490	38	8	
14	0	0	0	0	503	591	0	491	38	8	
15	0	0	0	0	506	592	0	488	39	8	
0	0	0	0	0	511	593	0	486	39	8	
1	0	0	0	0	510	594	0	484	38	8	
2	0	0	0	0	506	595	0	486	39	8	
3	0	0	0	0	504	595	0	488	39	8	
4	0	0	0	0	502	596	0	490	39	8	
5	0	0	0	0	512	597	0	491	38	8	
6	0	0	0	0	512	598	0	492	38	8	
7	0	0	0	0	504	598	0	493	39	8	
8	0	0	0	0	506	598	0	489	38	8	
9	0	0	0	0	498	599	0	488	39	8	
10	0	0	0	0	515	599	0	485	39	8	
11	0	0	0	0	510	600	0	487	39	8	
12	0	0	0	0	504	601	0	487	39	8	
13	0	0	0	0	503	601	0	491	39	8	
14	0	0	0	0	505	601	0	492	39	8	
15	0	0	0	0	508	602	0	516	39	8	
0	0	0	0	0	509	602	0	524	39	8	
1	0	0	0	0	511	603	0	533	39	8	
2	0	0	0	0	507	602	0	552	39	8	
3	0	0	0	0	507	603	0	555	39	8	
4	0	0	0	0	508	602	0	567	38	8	
5	0	0	0	0	511	603	0	566	39	8	
6	0	0	0	0	508	603	0	565	39	8	
7	0	0	0	0	504	603	0	571	38	8	
8	0	0	0	0	509	603	0	560	39	8	
9	0	0	0	0	508	602	0	564	39	8	
10	0	0	0	0	511	602	0	567	39	8	
11	0	0	0	0	506	602	0	561	39	8	
12	0	0	0	0	498	601	0	552	39	8	
13	0	0	0	0	509	602	0	537	39	8	
14	0	0	0	0	506	602	0	521	39	8	
15	0	0	0	0	513	602	0	507	39	8	
0	0	0	0	0	513	601	0	501	39	8	
1	0	0	0	0	503	601	0	486	39	8	
2	0	0	0	0	503	601	0	493	39	8	
3	0	0	0	0	505	601	0	477	39	8	
4	0	0	0	0	510	601	0	476	39	8	
5	0	0	0	0	514	600	0	475	39	8	
6	0	0	0	0	504	600	0	476	39	8	
7	0	0	0	0	508	599	0	474	39	8	
8	0	0	0	0	501	598	0	471	39	8	
9	0	0	0	0	504	597	0	467	39	8	
10	0	0	0	0	517	596	0	469	39	8	
11	0	0	0	0	512	594	0	472	39	8	
12	0	0	0	0	503	592	0	474	39	8	
13	0	0	0	0	511	590	0	475	39	8	
14	0	0	0	0	504	589	0	476	39	8	
15	0	0	0	0	511	588	0	474	39	8	
0	0	0	0	0	511	586	0	472	39	8	
1	0	0	0	0	508	585	0	468	39	8	
2	0	0	0	0	502	583	0	469	39	8	
3	0	0	0	0	504	582	0	469	39	8	
4	0	0	0	0	504	579	0	473	38	8	
5	0	0	0	0	503	577	0	476	39	8	
6	0	0	0	0	511	576	0	476	39	8	
7	0	0	0	0	513	574	0	478	39	8	
8	0	0	0	0	510	571	0	488	39	8	
9	0	0	0	0	509	568	0	507	39	8	
10	0	0	0	0	505	566	0	512	39	8	
11	0	0	0	0	509	563	0	532	38	8	
12	0	0	0	0	508	561	0	541	39	8	
13	0	0	0	0	513	559	0	549	38	8	
14	0	0	0	0	504	556	0	556	39	8	
15	0	0	0	0	508	553	0	550	38	8	
0	0	0	0	0	509	551	0	555	39	8	
1	0	0	0	0	503	547	0	547	38	8	
2	0	0	0	0	507	545	0	547	39	8	
3	0	0	0	0	510	542	0	553	39	8	
4	0	0	0	0	507	539	0	546	39	8	
5	0	0	0	0	505	536	0	557	39	8	
6	0	0	0	0	508	534	0	555	39	8	
7	0	0	0	0	508	531	0	553	39	8	
8	0	0	0	0	507	528	0	552	39	8	
9	0	0	0	0	508	525	0	540	39	8	
10	0	0	0	0	507	523	0	531	39	8	
11	0	0	0	0	505	520	0	516	39	8	
12	0	0	0	0	507	517	0	505	39	8	
13	0	0	0	0	510	514	0	495	39	8	
14	0	0	0	0	500	512	0	489	39	8	
15	0	0	0	0	505	509	0	482	39	8	
0	0	0	0	0	513	507	0	479	39	8	
1	0	0	0	0	510	504	0	475	38	8	
2	0	0	0	0	505	502	0	473	39	8	
3	0	0	0	0	503	498	0	472	39	8	
4	0	0	0	0	508	496	0	473	39	8	
5	0	0	0	0	508	493	0	472	38	8	
6	0	0	0	0	505	491	0	472	39	8	
7	0	0	0	0	507	486	0	471	39	8	
8	0	0	0	0	508	483	0	468	39	8	
9	0	0	0	0	511	478	0	464	39	8	
10	0	0	0	0	506	474	0	463	39	8	
11	0	0	0	0	509	468	0	463	38	8	
12	0	0	0	0	511	464	0	465	39	8	
13	0	0	0	0	510	459	0	467	39	8	
14	0	0	0	0	504	454	0	471	39	8	
15	0	0	0	0	505	448	0	467	39	8	
0	0	0	0	0	505	444	0	464	38	8	
1	0	0	0	0	506	439	0	465	39	8	
2	0	0	0	0	514	434	0	467	39	8	
3	0	0	0	0	502	429	0	471	39	8	
4	0	0	0	0	510	424	0	470	39	8	
5	0	0	0	0	508	419	0	473	39	8	
6	0	0	0	0	513	414	0	473	39	8	
7	0	0	0	0	506	410	0	483	39	8	
8	0	0	0	0	509	408	0	471	39	8	
9	0	0	0	0	511	406	0	468	39	8	
10	0	0	0	0	504	404	0	469	39	8	
11	0	0	0	0	497	403	0	472	39	8	
12	0	0	0	0	501	402	0	475	39	8	
13	0	0	0	0	510	401	0	477	39	8	
14	0	0	0	0	509	400	0	480	39	8	
15	0	0	0	0	505	399	0	480	39	8	
0	0	0	0	0	500	399	0	477	39	8	
1	0	0	0	0	508	399	0	476	39	8	
2	0	0	0	0	504	399	0	476	39	8	
3	0	0	0	0	511	399	0	477	38	8	
4	0	0	0	0	509	400	0	478	38	8	
5	0	0	0	0	517	399	0	480	38	8	
6	0	0	0	0	506	399	0	484	39	8	
7	0	0	0	0	512	400	0	485	39	8	
8	0	0	0	0	505	401	0	483	39	8	
9	0	0	0	0	510	403	0	484	39	8	
10	0	0	0	0	508	403	0	484	39	8	
11	0	0	0	0	510	404	0	487	39	8	
12	0	0	0	0	501	405	0	485	39	8	
13	0	0	0	0	504	407	0	487	38	8	
14	0	0	0	0	507	407	0	502	39	8	
15	0	0	0	0	505	408	0	521	39	8	
0	0	0	0	0	508	409	0	527	39	8	
1	0	0	0	0	511	411	0	549	39	8	
2	0	0	0	0	510	412	0	554	39	8	
3	0	0	0	0	505	413	0	561	39	8	
4	0	0	0	0	510	414	0	569	39	8	
5	0	0	0	0	503	415	0	565	39	8	
6	0	0	0	0	504	416	0	572	38	8	
7	0	0	0	0	510	418	0	566	39	8	
8	0	0	0	0	510	419	0	563	39	8	
9	0	0	0	0	509	421	0	565	39	8	
10	0	0	0	0	510	423	0	556	39	8	
11	0	0	0	0	510	424	0	567	39	8	
12	0	0	0	0	513	427	0	566	39	8	
13	0	0	0	0	507	429	0	568	39	8	
14	0	0	0	0	499	430	0	572	39	8	
15	0	0	0	0	505	432	0	563	39	8	
0	0	0	0	0	509	434	0	569	38	8	
1	0	0	0	0	506	437	0	563	39	8	
2	0	0	0	0	508	439	0	561	39	8	
3	0	0	0	0	511	441	0	568	39	8	
4	0	0	0	0	507	443	0	561	39	8	
5	0	0	0	0	508	446	0	554	39	8	
6	0	0	0	0	512	448	0	558	39	8	
7	0	0	0	0	506	450	0	556	39	8	
8	0	0	0	0	508	452	0	547	39	8	
9	0	0	0	0	508	453	0	539	39	8	
10	0	0	0	0	503	455	0	525	39	8	
11	0	0	0	0	504	456	0	514	39	8	
12	0	0	0	0	506	457	0	505	39	8	
13	0	0	0	0	505	459	0	498	39	8	
14	0	0	0	0	508	460	0	494	39	8	
15	0	0	0	0	504	462	0	492	39	8	
0	0	0	0	0	504	463	0	488	39	8	
1	0	0	0	0	504	464	0	486	39	8	
2	0	0	0	0	512	466	0	486	39	8	
3	0	0	0	0	511	467	0	489	39	8	
4	0	0	0	0	508	468	0	490	39	8	
5	0	0	0	0	506	470	0	492	38	8	
6	0	0	0	0	507	470	0	492	39	8	
7	0	0	0	0	504	472	0	491	39	8	
8	0	0	0	0	508	472	0	488	39	8	
9	0	0	0	0	504	474	0	484	39	8	
10	0	0	0	0	511	475	0	482	39	8	
11	0	0	0	0	511	476	0	485	38	8	
12	0	0	0	0	505	476	0	487	39	8	
13	0	0	0	0	498	478	0	491	39	8	
14	0	0	0	0	499	479	0	492	39	8	
15	0	0	0	0	509	480	0	491	39	8	
0	0	0	0	0	515	481	0	490	39	8	
1	0	0	0	0	508	483	0	486	39	8	
2	0	0	0	0	501	483	0	490	39	8	
3	0	0	0	0	509	485	0	488	39	8	
4	0	0	0	0	508	486	0	498	39	8	
5	0	0	0	0	510	487	0	508	38	8	
6	0	0	0	0	509	487	0	550	38	8	
7	0	0	0	0	516	488	0	542	39	8	
8	0	0	0	0	502	490	0	568	39	8	
9	0	0	0	0	507	491	0	561	39	8	
10	0	0	0	0	513	493	0	568	39	8	
11	0	0	0	0	504	494	0	575	39	8	
12	0	0	0	0	502	496	0	573	39	8	
13	0	0	0	0	507	496	0	583	39	8	
14	0	0	0	0	508	498	0	583	39	8	
15	0	0	0	0	508	499	0	579	38	8	
0	0	0	0	0	506	501	0	585	39	8	
1	0	0	0	0	504	503	0	568	38	8	
2	0	0	0	0	511	504	0	558	39	8	
3	0	0	0	0	509	505	0	543	39	8	
4	0	0	0	0	509	507	0	528	39	8	
5	0	0	0	0	505	508	0	518	39	8	
6	0	0	0	0	503	509	0	510	39	8	
7	0	0	0	0	508	510	0	504	39	8	
8	0	0	0	0	514	510	0	498	39	8	
9	0	0	0	0	513	511	0	494	39	8	
10	0	0	0	0	506	511	0	493	39	8	
11	0	0	0	0	509	512	0	493	39	8	
12	0	0	0	0	503	512	0	493	39	8	
13	0	0	0	0	504	512	0	493	39	8	
14	0	0	0	0	507	513	0	493	39	8	
15	0	0	0	0	512	512	0	491	39	8	
0	0	0	0	0	507	512	0	491	39	8	
1	0	0	0	0	513	513	0	489	39	8	
2	0	0	0	0	513	513	0	486	39	8	
3	0	0	0	0	511	513	0	489	39	8	
4	0	0	0	0	502	513	0	488	39	8	
5	0	0	0	0	502	512	0	494	39	8	
6	0	0	0	0	503	513	0	492	39	8	
7	0	0	0	0	509	513	0	491	38	8	
8	0	0	0	0	509	515	0	485	38	8	
9	0	0	0	0	505	516	0	484	39	8	
10	0	0	0	0	501	517	0	484	39	8	
11	0	0	0	0	506	518	0	487	39	8	
12	0	0	0	0	506	519	0	486	39	8	
13	0	0	0	0	513	522	0	489	38	8	
14	0	0	0	0	511	523	0	499	38	8	
15	0	0	0	0	499	525	0	526	39	8	
0	0	0	0	0	509	527	0	532	39	8	
1	0	0	0	0	507	529	0	551	39	8	
2	0	0	0	0	504	530	0	558	39	8	
3	0	0	0	0	501	532	0	563	39	8	
4	0	0	0	0	509	534	0	573	39	8	
5	0	0	0	0	506	536	0	575	39	8	
6	0	0	0	0	504	537	0	575	39	8	
7	0	0	0	0	508	539	0	575	39	8	
8	0	0	0	0	507	540	0	567	39	8	
9	0	0	0	0	504	541	0	574	38	8	
10	0	0	0	0	513	543	0	562	38	8	
11	0	0	0	0	513	544	0	556	38	8	
12	0	0	0	0	508	545	0	540	38	8	
13	0	0	0	0	503	547	0	528	38	8	
14	0	0	0	0	501	547	0	513	38	8	
15	0	0	0	0	508	549	0	505	39	8	
0	0	0	0	0	508	550	0	493	38	8	
1	0	0	0	0	512	551	0	504	39	8	
2	0	0	0	0	505	552	0	520	39	8	
3	0	0	0	0	513	554	0	544	38	8	
4	0	0	0	0	506	555	0	532	38	8	
5	0	0	0	0	509	556	0	547	39	8	
6	0	0	0	0	511	558	0	553	38	8	
7	0	0	0	0	505	558	0	547	38	8	
8	0	0	0	0	504	559	0	537	38	8	
9	0	0	0	0	509	559	0	521	39	8	
10	0	0	0	0	511	559	0	506	39	8	
11	0	0	0	0	509	559	0	495	39	8	
12	0	0	0	0	508	559	0	486	39	8	
13	0	0	0	0	509	559	0	484	39	8	
14	0	0	0	0	508	558	0	478	39	8	
15	0	0	0	0	509	557	0	477	39	8	
0	0	0	0	0	502	556	0	471	39	8	
1	0	0	0	0	512	555	0	468	39	8	
2	0	0	0	0	503	554	0	465	39	8	
3	0	0	0	0	505	554	0	468	38	8	
4	0	0	0	0	509	554	0	467	38	8	
5	0	0	0	0	512	553	0	469	38	8	
6	0	0	0	0	502	552	0	468	38	8	
7	0	0	0	0	509	551	0	483	38	8	
8	0	0	0	0	508	552	0	465	39	8	
9	0	0	0	0	508	552	0	461	38	8	
10	0	0	0	0	504	551	0	461	38	8	
11	0	0	0	0	509	551	0	464	39	8	
12	0	0	0	0	502	551	0	467	39	8	
13	0	0	0	0	506	551	0	470	38	8	
14	0	0	0	0	507	551	0	471	39	8	
15	0	0	0	0	512	551	0	473	39	8	
0	0	0	0	0	510	551	0	472	39	8	
1	0	0	0	0	503	551	0	470	39	8	
2	0	0	0	0	506	551	0	469	39	8	
3	0	0	0	0	504	551	0	472	38	8	
4	0	0	0	0	506	550	0	491	39	8	
5	0	0	0	0	508	550	0	515	39	8	
6	0	0	0	0	510	550	0	525	39	8	
7	0	0	0	0	511	550	0	546	39	8	
8	0	0	0	0	510	550	0	549	39	8	
9	0	0	0	0	509	550	0	552	39	8	
10	0	0	0	0	508	550	0	561	39	8	
11	0	0	0	0	505	550	0	556	39	8	
12	0	0	0	0	509	549	0	564	38	8	
13	0	0	0	0	511	550	0	565	38	8	
14	0	0	0	0	504	550	0	565	39	8	
15	0	0	0	0	502	550	0	567	39	8	
0	0	0	0	0	501	550	0	554	38	8	
1	0	0	0	0	509	550	0	543	38	8	
2	0	0	0	0	512	549	0	529	39	8	
3	0	0	0	0	508	549	0	514	38	8	
4	0	0	0	0	504	550	0	505	39	8	
5	0	0	0	0	511	549	0	495	39	8	
6	0	0	0	0	511	549	0	491	39	8	
7	0	0	0	0	509	549	0	483	39	8	
8	0	0	0	0	508	549	0	487	39	8	
9	0	0	0	0	505	549	0	472	39	8	
10	0	0	0	0	502	548	0	472	38	8	
11	0	0	0	0	506	547	0	472	39	8	
12	0	0	0	0	509	547	0	473	38	8	
13	0	0	0	0	515	547	0	474	38	8	
14	0	0	0	0	513	546	0	476	38	8	
15	0	0	0	0	507	545	0	478	38	8	
0	0	0	0	0	499	545	0	476	38	8	
1	0	0	0	0	505	544	0	473	39	8	
2	0	0	0	0	510	543	0	474	39	8	
3	0	0	0	0	502	543	0	476	38	8	
4	0	0	0	0	505	542	0	480	39	8	
5	0	0	0	0	506	541	0	481	39	8	
6	0	0	0	0	505	541	0	482	38	8	
7	0	0	0	0	501	539	0	480	38	8	
8	0	0	0	0	511	538	0	477	39	8	
9	0	0	0	0	511	537	0	477	38	8	
10	0	0	0	0	511	536	0	476	39	8	
11	0	0	0	0	510	535	0	481	39	8	
12	0	0	0	0	511	533	0	482	39	8	
13	0	0	0	0	509	531	0	496	39	8	
14	0	0	0	0	508	530	0	521	39	8	
15	0	0	0	0	511	528	0	528	39	8	
0	0	0	0	0	503	526	0	543	39	8	
1	0	0	0	0	504	525	0	551	39	8	
2	0	0	0	0	504	524	0	553	39	8	
3	0	0	0	0	505	522	0	566	39	8	
4	0	0	0	0	508	521	0	560	39	8	
5	0	0	0	0	508	519	0	567	39	8	
6	0	0	0	0	510	517	0	570	38	8	
7	0	0	0	0	507	515	0	567	39	8	
8	0	0	0	0	504	514	0	569	39	8	
9	0	0	0	0	509	513	0	556	39	8	
10	0	0	0	0	512	512	0	547	39	8	
11	0	0	0	0	507	511	0	533	39	8	
12	0	0	0	0	510	509	0	520	38	8	
13	0	0	0	0	504	508	0	509	38	8	
14	0	0	0	0	512	506	0	503	39	8	
15	0	0	0	0	508	504	0	494	39	8	
0	0	0	0	0	504	503	0	490	38	8	
1	0	0	0	0	504	502	0	481	39	8	
2	0	0	0	0	505	500	0	482	39	8	
3	0	0	0	0	509	499	0	481	38	8	
4	0	0	0	0	511	497	0	483	39	8	
5	0	0	0	0	508	496	0	483	39	8	
6	0	0	0	0	513	495	0	485	39	8	
7	0	0	0	0	506	494	0	486	38	8	
8	0	0	0	0	507	492	0	484	39	8	
9	0	0	0	0	507	492	0	481	39	8	
10	0	0	0	0	508	492	0	483	39	8	
11	0	0	0	0	503	491	0	486	39	8	
12	0	0	0	0	504	491	0	487	39	8	
13	0	0	0	0	502	490	0	490	39	8	
14	0	0	0	0	508	490	0	491	39	8	
15	0	0	0	0	508	489	0	491	39	8	
0	0	0	0	0	508	488	0	484	38	8	
1	0	0	0	0	503	487	0	487	39	8	
2	0	0	0	0	508	487	0	482	39	8	
3	0	0	0	0	507	487	0	484	38	8	
4	0	0	0	0	515	487	0	484	38	8	
5	0	0	0	0	509	486	0	486	38	8	
6	0	0	0	0	507	485	0	494	38	8	
7	0	0	0	0	504	485	0	518	38	8	
8	0	0	0	0	510	484	0	526	38	8	
9	0	0	0	0	506	483	0	539	38	8	
10	0	0	0	0	506	481	0	558	39	8	
11	0	0	0	0	507	480	0	562	39	8	
12	0	0	0	0	508	478	0	576	39	8	
13	0	0	0	0	513	477	0	575	38	8	
14	0	0	0	0	505	476	0	575	39	8	
15	0	0	0	0	506	475	0	581	39	8	
0	0	0	0	0	515	473	0	573	39	8	
1	0	0	0	0	512	472	0	581	39	8	
2	0	0	0	0	506	471	0	577	39	8	
3	0	0	0	0	511	469	0	569	39	8	
4	0	0	0	0	507	467	0	557	39	8	
5	0	0	0	0	506	466	0	543	39	8	
6	0	0	0	0	507	465	0	532	39	8	
7	0	0	0	0	507	463	0	522	39	8	
8	0	0	0	0	506	463	0	512	39	8	
9	0	0	0	0	503	461	0	505	39	8	
10	0	0	0	0	510	460	0	502	39	8	
11	0	0	0	0	504	459	0	499	39	8	
12	0	0	0	0	508	458	0	497	39	8	
13	0	0	0	0	505	457	0	497	39	8	
14	0	0	0	0	506	456	0	497	39	8	
15	0	0	0	0	510	456	0	497	39	8	
0	0	0	0	0	506	456	0	495	39	8	
1	0	0	0	0	504	455	0	492	39	8	
2	0	0	0	0	508	455	0	495	39	8	
3	0	0	0	0	508	454	0	495	39	8	
4	0	0	0	0	514	453	0	500	38	8	
5	0	0	0	0	505	452	0	500	38	8	
6	0	0	0	0	513	452	0	502	38	8	
7	0	0	0	0	512	451	0	500	38	8	
8	0	0	0	0	507	451	0	496	39	8	
9	0	0	0	0	506	451	0	493	38	8	
10	0	0	0	0	498	450	0	492	39	8	
11	0	0	0	0	510	450	0	495	39	8	
12	0	0	0	0	502	451	0	495	38	8	
13	0	0	0	0	509	450	0	496	39	8	
14	0	0	0	0	508	451	0	496	39	8	
15	0	0	0	0	511	451	0	495	39	8	
0	0	0	0	0	508	451	0	491	38	8	
1	0	0	0	0	506	451	0	489	39	8	
2	0	0	0	0	509	451	0	488	39	8	
3	0	0	0	0	512	451	0	490	39	8	
4	0	0	0	0	507	451	0	491	39	8	
5	0	0	0	0	512	451	0	491	39	8	
6	0	0	0	0	509	451	0	491	39	8	
7	0	0	0	0	505	451	0	491	39	8	
8	0	0	0	0	508	452	0	490	38	8	
9	0	0	0	0	503	452	0	485	38	8	
10	0	0	0	0	506	454	0	486	39	8	
11	0	0	0	0	507	454	0	485	38	8	
12	0	0	0	0	512	455	0	489	39	8	
13	0	0	0	0	513	455	0	491	39	8	
14	0	0	0	0	506	455	0	495	39	8	
15	0	0	0	0	509	456	0	490	39	8	
0	0	0	0	0	510	457	0	488	38	8	
1	0	0	0	0	499	457	0	484	39	8	
2	0	0	0	0	504	458	0	487	39	8	
3	0	0	0	0	511	459	0	488	38	8	
4	0	0	0	0	507	459	0	492	38	8	
5	0	0	0	0	508	460	0	492	39	8	
6	0	0	0	0	512	460	0	495	39	8	
7	0	0	0	0	504	462	0	490	39	8	
8	0	0	0	0	507	463	0	487	39	8	
9	0	0	0	0	512	463	0	484	39	8	
10	0	0	0	0	510	465	0	488	39	8	
11	0	0	0	0	509	467	0	486	39	8	
12	0	0	0	0	507	467	0	492	38	8	
13	0	0	0	0	502	469	0	492	39	8	
14	0	0	0	0	504	471	0	515	39	8	
15	0	0	0	0	505	473	0	527	39	8	
0	0	0	0	0	510	475	0	536	39	8	
1	0	0	0	0	501	476	0	554	39	8	
2	0	0	0	0	511	478	0	556	39	8	
3	0	0	0	0	515	480	0	567	39	8	
4	0	0	0	0	510	481	0	571	39	8	
5	0	0	0	0	508	482	0	568	39	8	
6	0	0	0	0	507	484	0	578	39	8	
7	0	0	0	0	511	484	0	571	39	8	
8	0	0	0	0	511	485	0	574	39	8	
9	0	0	0	0	510	486	0	570	39	8	
10	0	0	0	0	503	486	0	564	39	8	
11	0	0	0	0	504	486	0	572	39	8	
12	0	0	0	0	500	487	0	579	39	8	
13	0	0	0	0	508	486	0	569	39	8	
14	0	0	0	0	507	486	0	573	39	8	
15	0	0	0	0	506	486	0	567	39	8	
0	0	0	0	0	504	486	0	587	39	8	
1	0	0	0	0	509	486	0	560	39	8	
2	0	0	0	0	506	486	0	563	38	8	
3	0	0	0	0	508	485	0	564	38	8	
4	0	0	0	0	505	484	0	561	38	8	
5	0	0	0	0	515	484	0	570	38	8	
6	0	0	0	0	503	485	0	565	38	8	
7	0	0	0	0	509	484	0	570	38	8	
8	0	0	0	0	511	484	0	567	38	8	
9	0	0	0	0	515	484	0	556	39	8	
10	0	0	0	0	508	484	0	545	39	8	
11	0	0	0	0	501	484	0	526	39	8	
12	0	0	0	0	512	483	0	511	39	8	
13	0	0	0	0	511	483	0	499	38	8	
14	0	0	0	0	502	483	0	492	39	8	
15	0	0	0	0	502	483	0	486	38	8	
0	0	0	0	0	507	482	0	480	39	8	
1	0	0	0	0	514	482	0	473	38	8	
2	0	0	0	0	505	482	0	471	39	8	
3	0	0	0	0	509	482	0	474	39	8	
4	0	0	0	0	499	482	0	475	39	8	
5	0	0	0	0	504	481	0	479	39	8	
6	0	0	0	0	507	481	0	478	39	8	
7	0	0	0	0	511	481	0	479	38	8	
8	0	0	0	0	505	481	0	474	39	8	
9	0	0	0	0	504	481	0	480	39	8	
10	0	0	0	0	515	481	0	471	39	8	
11	0	0	0	0	511	481	0	472	39	8	
12	0	0	0	0	514	481	0	475	39	8	
13	0	0	0	0	515	481	0	476	39	8	
14	0	0	0	0	497	481	0	477	38	8	
15	0	0	0	0	503	482	0	476	39	8	
0	0	0	0	0	508	482	0	473	38	8	
1	0	0	0	0	511	483	0	470	38	8	
2	0	0	0	0	512	483	0	470	39	8	
3	0	0	0	0	508	484	0	476	39	8	
4	0	0	0	0	509	484	0	504	38	8	
5	0	0	0	0	508	485	0	516	39	8	
6	0	0	0	0	504	485	0	533	39	8	
7	0	0	0	0	511	486	0	543	39	8	
8	0	0	0	0	504	486	0	539	39	8	
9	0	0	0	0	512	487	0	549	39	8	
10	0	0	0	0	503	489	0	551	39	8	
11	0	0	0	0	504	492	0	553	39	8	
12	0	0	0	0	504	493	0	559	39	8	
13	0	0	0	0	504	495	0	551	39	8	
14	0	0	0	0	505	496	0	558	39	8	
15	0	0	0	0	508	498	0	548	39	8	
0	0	0	0	0	509	500	0	540	39	8	
1	0	0	0	0	509	502	0	526	39	8	
2	0	0	0	0	508	504	0	513	39	8	
3	0	0	0	0	505	506	0	501	39	8	
4	0	0	0	0	514	508	0	492	39	8	
5	0	0	0	0	508	510	0	484	39	8	
6	0	0	0	0	501	512	0	480	39	8	
7	0	0	0	0	509	513	0	477	39	8	
8	0	0	0	0	510	515	0	471	38	8	
9	0	0	0	0	513	516	0	466	39	8	
10	0	0	0	0	507	518	0	465	39	8	
11	0	0	0	0	509	520	0	466	38	8	
12	0	0	0	0	503	521	0	468	39	8	
13	0	0	0	0	500	523	0	470	38	8	
14	0	0	0	0	506	525	0	472	39	8	
15	0	0	0	0	511	527	0	472	39	8	
0	0	0	0	0	504	529	0	470	39	8	
1	0	0	0	0	508	530	0	467	39	8	
2	0	0	0	0	504	532	0	470	39	8	
3	0	0	0	0	510	534	0	473	38	8	
4	0	0	0	0	509	535	0	475	38	8	
5	0	0	0	0	508	537	0	477	38	8	
6	0	0	0	0	509	538	0	479	39	8	
7	0	0	0	0	505	539	0	478	39	8	
8	0	0	0	0	508	539	0	475	39	8	
9	0	0	0	0	504	540	0	474	39	8	
10	0	0	0	0	508	540	0	475	39	8	
11	0	0	0	0	511	541	0	476	39	8	
12	0	0	0	0	505	542	0	481	39	8	
13	0	0	0	0	506	542	0	504	39	8	
14	0	0	0	0	510	543	0	522	39	8	
15	0	0	0	0	514	543	0	531	39	8	
0	0	0	0	0	505	543	0	548	39	8	
1	0	0	0	0	500	543	0	545	39	8	
2	0	0	0	0	509	543	0	553	39	8	
3	0	0	0	0	506	544	0	561	38	8	
4	0	0	0	0	514	544	0	560	39	8	
5	0	0	0	0	515	544	0	568	39	8	
6	0	0	0	0	508	544	0	556	39	8	
7	0	0	0	0	506	545	0	560	39	8	
8	0	0	0	0	505	545	0	554	39	8	
9	0	0	0	0	512	545	0	544	39	8	
10	0	0	0	0	508	546	0	534	39	8	
11	0	0	0	0	504	547	0	518	39	8	
12	0	0	0	0	512	548	0	507	38	8	
13	0	0	0	0	505	548	0	496	38	8	
14	0	0	0	0	505	549	0	490	38	8	
15	0	0	0	0	503	549	0	486	38	8	
0	0	0	0	0	504	550	0	484	39	8	
1	0	0	0	0	505	551	0	480	39	8	
2	0	0	0	0	507	551	0	479	39	8	
3	0	0	0	0	510	552	0	479	39	8	
4	0	0	0	0	504	552	0	480	39	8	
5	0	0	0	0	507	553	0	480	39	8	
6	0	0	0	0	513	553	0	481	38	8	
7	0	0	0	0	510	554	0	480	38	8	
8	0	0	0	0	506	555	0	480	39	8	
9	0	0	0	0	504	556	0	478	39	8	
10	0	0	0	0	504	557	0	480	39	8	
11	0	0	0	0	499	558	0	481	39	8	
12	0	0	0	0	512	559	0	484	39	8	
13	0	0	0	0	511	561	0	487	39	8	
14	0	0	0	0	507	562	0	492	39	8	
15	0	0	0	0	506	563	0	491	39	8	
0	0	0	0	0	502	564	0	488	39	8	
1	0	0	0	0	504	565	0	487	39	8	
2	0	0	0	0	507	566	0	490	39	8	
3	0	0	0	0	513	568	0	493	39	8	
4	0	0	0	0	512	568	0	495	39	8	
5	0	0	0	0	507	570	0	496	38	8	
6	0	0	0	0	502	571	0	513	39	8	
7	0	0	0	0	503	570	0	531	39	8	
8	0	0	0	0	511	570	0	538	39	8	
9	0	0	0	0	515	568	0	557	39	8	
10	0	0	0	0	514	567	0	563	39	8	
11	0	0	0	0	498	565	0	569	39	8	
12	0	0	0	0	512	563	0	581	39	8	
13	0	0	0	0	508	560	0	577	39	8	
14	0	0	0	0	513	558	0	586	38	8	
15	0	0	0	0	506	556	0	575	39	8	
0	0	0	0	0	515	553	0	571	38	8	
1	0	0	0	0	502	551	0	573	38	8	
2	0	0	0	0	512	548	0	566	39	8	
3	0	0	0	0	507	545	0	559	38	8	
4	0	0	0	0	508	543	0	546	38	8	
5	0	0	0	0	505	540	0	531	39	8	
6	0	0	0	0	504	538	0	520	39	8	
7	0	0	0	0	505	537	0	511	39	8	
8	0	0	0	0	505	536	0	505	39	8	
9	0	0	0	0	511	535	0	498	39	8	
10	0	0	0	0	501	534	0	494	39	8	
11	0	0	0	0	512	535	0	493	39	8	
12	0	0	0	0	511	535	0	494	39	8	
13	0	0	0	0	506	535	0	493	39	8	
14	0	0	0	0	507	534	0	493	39	8	
15	0	0	0	0	506	534	0	491	39	8	
0	0	0	0	0	506	534	0	489	39	8	
1	0	0	0	0	501	534	0	487	39	8	
2	0	0	0	0	499	534	0	487	39	8	
3	0	0	0	0	518	535	0	489	39	8	
4	0	0	0	0	510	535	0	492	39	8	
5	0	0	0	0	508	535	0	492	39	8	
6	0	0	0	0	505	536	0	495	39	8	
7	0	0	0	0	505	535	0	493	39	8	
8	0	0	0	0	516	535	0	490	39	8	
9	0	0	0	0	506	534	0	488	38	8	
10	0	0	0	0	502	533	0	491	39	8	
11	0	0	0	0	499	531	0	494	39	8	
12	0	0	0	0	510	529	0	497	38	8	
13	0	0	0	0	511	528	0	497	38	8	
14	0	0	0	0	510	527	0	499	39	8	
15	0	0	0	0	512	525	0	509	39	8	
0	0	0	0	0	508	524	0	533	38	8	
1	0	0	0	0	499	523	0	542	39	8	
2	0	0	0	0	504	521	0	561	39	8	
3	0	0	0	0	508	519	0	569	39	8	
4	0	0	0	0	504	518	0	572	39	8	
5	0	0	0	0	507	516	0	588	39	8	
6	0	0	0	0	508	515	0	585	39	8	
7	0	0	0	0	505	514	0	592	38	8	
8	0	0	0	0	501	512	0	586	39	8	
9	0	0	0	0	504	511	0	580	39	8	
10	0	0	0	0	509	509	0	583	39	8	
11	0	0	0	0	515	508	0	575	39	8	
12	0	0	0	0	513	506	0	556	39	8	
13	0	0	0	0	509	504	0	558	39	8	
14	0	0	0	0	504	503	0	560	39	8	
15	0	0	0	0	513	502	0	554	38	8	
0	0	0	0	0	509	501	0	567	39	8	
1	0	0	0	0	509	499	0	567	38	8	
2	0	0	0	0	510	499	0	571	39	8	
3	0	0	0	0	504	497	0	581	39	8	
4	0	0	0	0	503	497	0	577	38	8	
5	0	0	0	0	510	496	0	572	38	8	
6	0	0	0	0	505	494	0	579	38	8	
7	0	0	0	0	502	494	0	579	39	8	
8	0	0	0	0	507	494	0	568	38	8	
9	0	0	0	0	508	495	0	559	39	8	
10	0	0	0	0	510	496	0	545	39	8	
11	0	0	0	0	513	498	0	533	39	8	
12	0	0	0	0	512	499	0	523	38	8	
13	0	0	0	0	505	501	0	513	38	8	
14	0	0	0	0	510	502	0	507	39	8	
15	0	0	0	0	515	504	0	502	38	8	
0	0	0	0	0	508	504	0	494	38	8	
1	0	0	0	0	507	506	0	489	38	8	
2	0	0	0	0	502	507	0	488	39	8	
3	0	0	0	0	508	508	0	491	39	8	
4	0	0	0	0	506	510	0	491	39	8	
5	0	0	0	0	510	512	0	492	39	8	
6	0	0	0	0	497	513	0	488	39	8	
7	0	0	0	0	508	515	0	485	39	8	
8	0	0	0	0	510	516	0	480	39	8	
9	0	0	0	0	510	517	0	478	39	8	
10	0	0	0	0	509	519	0	478	39	8	
11	0	0	0	0	508	520	0	482	39	8	
12	0	0	0	0	512	521	0	485	39	8	
13	0	0	0	0	503	523	0	487	39	8	
14	0	0	0	0	503	524	0	488	39	8	
15	0	0	0	0	509	525	0	486	39	8	
0	0	0	0	0	511	527	0	482	39	8	
1	0	0	0	0	511	528	0	479	39	8	
2	0	0	0	0	507	528	0	479	39	8	
3	0	0	0	0	510	529	0	481	39	8	
4	0	0	0	0	510	530	0	483	39	8	
5	0	0	0	0	506	531	0	502	39	8	
6	0	0	0	0	510	532	0	527	39	8	
7	0	0	0	0	507	533	0	534	38	8	
8	0	0	0	0	508	534	0	550	38	8	
9	0	0	0	0	510	535	0	550	38	8	
10	0	0	0	0	506	535	0	553	39	8	
11	0	0	0	0	506	535	0	562	39	8	
12	0	0	0	0	502	535	0	557	38	8	
13	0	0	0	0	511	536	0	567	38	8	
14	0	0	0	0	508	537	0	564	38	8	
15	0	0	0	0	506	538	0	566	39	8	
0	0	0	0	0	508	538	0	566	39	8	
1	0	0	0	0	506	538	0	553	39	8	
2	0	0	0	0	505	539	0	544	39	8	
3	0	0	0	0	508	539	0	529	39	8	
4	0	0	0	0	510	539	0	515	39	8	
5	0	0	0	0	511	540	0	505	39	8	
6	0	0	0	0	506	540	0	496	39	8	
7	0	0	0	0	510	540	0	491	39	8	
8	0	0	0	0	511	541	0	486	38	8	
9	0	0	0	0	508	541	0	483	38	8	
10	0	0	0	0	511	541	0	480	39	8	
11	0	0	0	0	506	542	0	478	38	8	
12	0	0	0	0	508	542	0	476	39	8	
13	0	0	0	0	507	542	0	476	39	8	
14	0	0	0	0	508	543	0	474	39	8	
15	0	0	0	0	500	544	0	472	39	8	
0	0	0	0	0	504	544	0	466	39	8	
1	0	0	0	0	505	545	0	462	39	8	
2	0	0	0	0	511	544	0	459	39	8	
3	0	0	0	0	507	544	0	462	39	8	
4	0	0	0	0	508	545	0	465	39	8	
5	0	0	0	0	507	545	0	467	38	8	
6	0	0	0	0	512	545	0	469	39	8	
7	0	0	0	0	512	544	0	466	39	8	
8	0	0	0	0	511	543	0	461	38	8	
9	0	0	0	0	498	542	0	459	39	8	
10	0	0	0	0	502	541	0	459	39	8	
11	0	0	0	0	503	539	0	463	39	8	
12	0	0	0	0	506	537	0	464	39	8	
13	0	0	0	0	508	535	0	472	38	8	
14	0	0	0	0	510	534	0	470	39	8	
15	0	0	0	0	504	532	0	478	39	8	
0	0	0	0	0	510	531	0	470	39	8	
1	0	0	0	0	508	528	0	466	39	8	
2	0	0	0	0	512	527	0	467	39	8	
3	0	0	0	0	505	525	0	469	39	8	
4	0	0	0	0	506	524	0	472	39	8	
5	0	0	0	0	499	522	0	475	39	8	
6	0	0	0	0	500	519	0	476	39	8	
7	0	0	0	0	506	517	0	473	39	8	
8	0	0	0	0	507	515	0	469	39	8	
9	0	0	0	0	502	512	0	466	39	8	
10	0	0	0	0	503	510	0	465	39	8	
11	0	0	0	0	516	507	0	467	39	8	
12	0	0	0	0	512	505	0	469	39	8	
13	0	0	0	0	506	503	0	481	39	8	
14	0	0	0	0	505	501	0	473	39	8	
15	0	0	0	0	515	498	0	475	39	8	
0	0	0	0	0	514	496	0	471	39	8	
1	0	0	0	0	510	494	0	472	38	8	
2	0	0	0	0	508	492	0	472	39	8	
3	0	0	0	0	507	488	0	477	38	8	
4	0	0	0	0	506	486	0	477	38	8	
5	0	0	0	0	505	484	0	482	38	8	
6	0	0	0	0	508	482	0	480	39	8	
7	0	0	0	0	503	479	0	480	39	8	
8	0	0	0	0	511	477	0	480	39	8	
9	0	0	0	0	502	475	0	507	39	8	
10	0	0	0	0	508	473	0	520	39	8	
11	0	0	0	0	507	470	0	539	39	8	
12	0	0	0	0	505	468	0	553	39	8	
13	0	0	0	0	520	466	0	570	39	8	
14	0	0	0	0	509	463	0	567	39	8	
15	0	0	0	0	512	461	0	578	39	8	
0	0	0	0	0	504	459	0	561	38	8	
1	0	0	0	0	504	456	0	568	39	8	
2	0	0	0	0	510	454	0	563	39	8	
3	0	0	0	0	499	451	0	574	39	8	
4	0	0	0	0	504	450	0	571	39	8	
5	0	0	0	0	510	447	0	580	39	8	
6	0	0	0	0	510	446	0	579	39	8	
7	0	0	0	0	513	444	0	574	39	8	
8	0	0	0	0	502	443	0	578	39	8	
9	0	0	0	0	504	441	0	570	39	8	
10	0	0	0	0	511	441	0	566	39	8	
11	0	0	0	0	508	440	0	585	39	8	
12	0	0	0	0	508	440	0	563	39	8	
13	0	0	0	0	505	440	0	587	39	8	
14	0	0	0	0	502	440	0	569	39	8	
15	0	0	0	0	499	439	0	579	39	8	
0	0	0	0	0	511	439	0	568	39	8	
1	0	0	0	0	514	438	0	556	38	8	
2	0	0	0	0	509	438	0	545	39	8	
3	0	0	0	0	507	437	0	534	39	8	
4	0	0	0	0	506	436	0	519	39	8	
5	0	0	0	0	507	436	0	511	39	8	
6	0	0	0	0	503	436	0	503	38	8	
7	0	0	0	0	505	435	0	500	38	8	
8	0	0	0	0	506	434	0	496	39	8	
9	0	0	0	0	510	432	0	493	38	8	
10	0	0	0	0	508	431	0	491	39	8	
11	0	0	0	0	511	430	0	490	39	8	
12	0	0	0	0	504	429	0	488	39	8	
13	0	0	0	0	507	427	0	487	39	8	
14	0	0	0	0	515	425	0	486	39	8	
15	0	0	0	0	506	424	0	484	39	8	
0	0	0	0	0	505	423	0	480	39	8	
1	0	0	0	0	510	421	0	476	38	8	
2	0	0	0	0	504	419	0	476	39	8	
3	0	0	0	0	505	417	0	477	39	8	
4	0	0	0	0	503	416	0	480	39	8	
5	0	0	0	0	514	414	0	482	39	8	
6	0	0	0	0	507	412	0	486	39	8	
7	0	0	0	0	514	411	0	485	39	8	
8	0	0	0	0	502	411	0	484	39	8	
9	0	0	0	0	511	409	0	483	39	8	
10	0	0	0	0	505	409	0	486	39	8	
11	0	0	0	0	506	408	0	489	38	8	
12	0	0	0	0	507	408	0	492	39	8	
13	0	0	0	0	513	408	0	495	38	8	
14	0	0	0	0	511	408	0	497	39	8	
15	0	0	0	0	509	408	0	499	39	8	
0	0	0	0	0	506	408	0	498	39	8	
1	0	0	0	0	499	408	0	521	38	8	
2	0	0	0	0	504	408	0	541	39	8	
3	0	0	0	0	504	408	0	555	38	8	
4	0	0	0	0	511	407	0	574	38	8	
5	0	0	0	0	508	407	0	574	38	8	
6	0	0	0	0	506	406	0	582	38	8	
7	0	0	0	0	513	412	0	582	39	8	
8	0	0	0	0	510	417	0	574	38	8	
9	0	0	0	0	502	427	0	592	39	8	
10	0	0	0	0	508	436	0	576	39	8	
11	0	0	0	0	502	448	0	582	39	8	
12	0	0	0	0	509	459	0	582	39	8	
13	0	0	0	0	507	473	0	575	39	8	
14	0	0	0	0	513	483	0	568	39	8	
15	0	0	0	0	511	497	0	576	39	8	
0	0	0	0	0	514	509	0	572	38	8	
1	0	0	0	0	502	523	0	563	38	8	
2	0	0	0	0	509	534	0	552	39	8	
3	0	0	0	0	504	548	0	537	39	8	
4	0	0	0	0	505	560	0	526	39	8	
5	0	0	0	0	510	575	0	517	39	8	
6	0	0	0	0	510	586	0	508	39	8	
7	0	0	0	0	509	587	0	501	39	8	
8	0	0	0	0	511	587	0	500	39	8	
9	0	0	0	0	513	581	0	496	39	8	
10	0	0	0	0	511	575	0	493	39	8	
11	0	0	0	0	510	564	0	500	39	8	
12	0	0	0	0	504	555	0	493	39	8	
13	0	0	0	0	507	541	0	493	38	8	
14	0	0	0	0	508	530	0	493	39	8	
15	0	0	0	0	510	515	0	490	39	8	
0	0	0	0	0	512	502	0	488	39	8	
1	0	0	0	0	508	486	0	484	39	8	
2	0	0	0	0	507	473	0	487	39	8	
3	0	0	0	0	500	458	0	488	39	8	
4	0	0	0	0	506	446	0	491	39	8	
5	0	0	0	0	510	430	0	491	38	8	
6	0	0	0	0	502	417	0	492	39	8	
7	0	0	0	0	512	408	0	494	39	8	
8	0	0	0	0	509	403	0	487	39	8	
9	0	0	0	0	507	399	0	492	39	8	
10	0	0	0	0	501	397	0	484	39	8	
11	0	0	0	0	504	397	0	487	39	8	
12	0	0	0	0	503	397	0	491	39	8	
13	0	0	0	0	504	398	0	494	39	8	
14	0	0	0	0	511	399	0	518	39	8	
15	0	0	0	0	513	401	0	534	39	8	
0	0	0	0	0	512	403	0	553	39	8	
1	0	0	0	0	512	405	0	561	39	8	
2	0	0	0	0	506	408	0	560	39	8	
3	0	0	0	0	505	411	0	570	39	8	
4	0	0	0	0	507	414	0	575	38	8	
5	0	0	0	0	504	417	0	574	39	8	
6	0	0	0	0	504	420	0	582	39	8	
7	0	0	0	0	510	423	0	572	39	8	
8	0	0	0	0	511	427	0	571	39	8	
9	0	0	0	0	508	430	0	568	38	8	
10	0	0	0	0	509	433	0	561	39	8	
11	0	0	0	0	502	436	0	551	38	8	
12	0	0	0	0	509	439	0	533	38	8	
13	0	0	0	0	509	442	0	519	38	8	
14	0	0	0	0	512	445	0	507	38	8	
15	0	0	0	0	507	448	0	498	39	8	
0	0	0	0	0	506	451	0	495	38	8	
1	0	0	0	0	506	455	0	485	39	8	
2	0	0	0	0	501	458	0	483	39	8	
3	0	0	0	0	506	462	0	482	38	8	
4	0	0	0	0	509	464	0	483	39	8	
5	0	0	0	0	502	467	0	484	39	8	
6	0	0	0	0	503	470	0	485	38	8	
7	0	0	0	0	508	473	0	483	39	8	
8	0	0	0	0	507	477	0	479	39	8	
9	0	0	0	0	513	481	0	480	38	8	
10	0	0	0	0	515	484	0	480	39	8	
11	0	0	0	0	501	487	0	483	39	8	
12	0	0	0	0	502	491	0	486	39	8	
13	0	0	0	0	505	495	0	488	39	8	
14	0	0	0	0	509	498	0	489	39	8	
15	0	0	0	0	505	501	0	490	38	8	
0	0	0	0	0	504	505	0	489	39	8	
1	0	0	0	0	505	508	0	483	39	8	
2	0	0	0	0	506	511	0	484	39	8	
3	0	0	0	0	511	514	0	484	39	8	
4	0	0	0	0	515	517	0	488	39	8	
5	0	0	0	0	508	521	0	491	39	8	
6	0	0	0	0	509	524	0	489	39	8	
7	0	0	0	0	509	527	0	507	39	8	
8	0	0	0	0	505	530	0	526	39	8	
9	0	0	0	0	511	533	0	533	39	8	
10	0	0	0	0	516	535	0	552	39	8	
11	0	0	0	0	508	538	0	558	39	8	
12	0	0	0	0	512	540	0	563	39	8	
13	0	0	0	0	500	542	0	573	39	8	
14	0	0	0	0	507	544	0	571	39	8	
15	0	0	0	0	500	547	0	576	39	8	
0	0	0	0	0	512	548	0	577	39	8	
1	0	0	0	0	504	551	0	561	39	8	
2	0	0	0	0	508	553	0	566	39	8	
3	0	0	0	0	514	554	0	559	39	8	
4	0	0	0	0	503	556	0	550	39	8	
5	0	0	0	0	502	558	0	535	39	8	
6	0	0	0	0	510	559	0	517	39	8	
7	0	0	0	0	507	560	0	504	39	8	
8	0	0	0	0	508	561	0	494	39	8	
9	0	0	0	0	507	562	0	484	38	8	
10	0	0	0	0	506	564	0	477	39	8	
11	0	0	0	0	504	565	0	473	39	8	
12	0	0	0	0	506	566	0	473	39	8	
13	0	0	0	0	499	566	0	470	39	8	
14	0	0	0	0	505	567	0	469	39	8	
15	0	0	0	0	515	568	0	464	39	8	
0	0	0	0	0	511	569	0	460	39	8	
1	0	0	0	0	508	570	0	455	39	8	
2	0	0	0	0	512	571	0	456	39	8	
3	0	0	0	0	506	572	0	461	39	8	
4	0	0	0	0	513	572	0	459	39	8	
5	0	0	0	0	504	572	0	462	39	8	
6	0	0	0	0	506	573	0	464	39	8	
7	0	0	0	0	511	573	0	464	39	8	
8	0	0	0	0	509	574	0	462	39	8	
9	0	0	0	0	505	574	0	457	39	8	
10	0	0	0	0	507	575	0	459	39	8	
11	0	0	0	0	507	575	0	458	39	8	
12	0	0	0	0	508	575	0	459	38	8	
13	0	0	0	0	502	575	0	460	38	8	
14	0	0	0	0	505	575	0	461	39	8	
15	0	0	0	0	510	575	0	460	38	8	
0	0	0	0	0	510	575	0	469	39	8	
1	0	0	0	0	505	575	0	492	39	8	
2	0	0	0	0	515	575	0	496	39	8	
3	0	0	0	0	508	575	0	515	38	8	
4	0	0	0	0	505	574	0	526	39	8	
5	0	0	0	0	508	574	0	531	38	8	
6	0	0	0	0	502	574	0	543	39	8	
7	0	0	0	0	511	574	0	538	39	8	
8	0	0	0	0	510	574	0	544	39	8	
9	0	0	0	0	510	574	0	540	39	8	
10	0	0	0	0	509	574	0	537	39	8	
11	0	0	0	0	502	575	0	545	39	8	
12	0	0	0	0	508	575	0	540	39	8	
13	0	0	0	0	508	575	0	536	39	8	
14	0	0	0	0	502	574	0	535	39	8	
15	0	0	0	0	501	574	0	542	39	8	
0	0	0	0	0	513	574	0	534	38	8	
1	0	0	0	0	512	575	0	526	39	8	
2	0	0	0	0	512	574	0	511	39	8	
3	0	0	0	0	514	575	0	495	38	8	
4	0	0	0	0	511	575	0	486	38	8	
5	0	0	0	0	506	575	0	477	39	8	
6	0	0	0	0	504	575	0	472	39	8	
7	0	0	0	0	512	574	0	467	39	8	
8	0	0	0	0	504	574	0	463	39	8	
9	0	0	0	0	507	573	0	460	39	8	
10	0	0	0	0	507	572	0	463	39	8	
11	0	0	0	0	513	571	0	495	38	8	
12	0	0	0	0	510	569	0	506	39	8	
13	0	0	0	0	508	568	0	524	38	8	
14	0	0	0	0	501	567	0	541	38	8	
15	0	0	0	0	504	565	0	542	38	8	
0	0	0	0	0	502	564	0	540	38	8	
1	0	0	0	0	507	562	0	525	38	8	
2	0	0	0	0	511	561	0	511	39	8	
3	0	0	0	0	509	560	0	499	39	8	
4	0	0	0	0	507	559	0	489	39	8	
5	0	0	0	0	501	557	0	482	39	8	
6	0	0	0	0	509	557	0	477	39	8	
7	0	0	0	0	511	555	0	471	38	8	
8	0	0	0	0	507	553	0	468	39	8	
9	0	0	0	0	514	552	0	469	38	8	
10	0	0	0	0	509	550	0	466	39	8	
11	0	0	0	0	501	549	0	477	39	8	
12	0	0	0	0	511	547	0	467	39	8	
13	0	0	0	0	509	545	0	468	39	8	
14	0	0	0	0	505	543	0	468	39	8	
15	0	0	0	0	503	541	0	468	39	8	
0	0	0	0	0	513	539	0	464	39	8	
1	0	0	0	0	503	537	0	462	39	8	
2	0	0	0	0	508	535	0	467	39	8	
3	0	0	0	0	505	533	0	469	38	8	
4	0	0	0	0	505	531	0	471	39	8	
5	0	0	0	0	508	529	0	474	38	8	
6	0	0	0	0	511	527	0	474	38	8	
7	0	0	0	0	509	526	0	473	39	8	
8	0	0	0	0	507	524	0	471	39	8	
9	0	0	0	0	506	521	0	471	38	8	
10	0	0	0	0	509	520	0	468	39	8	
11	0	0	0	0	501	518	0	471	39	8	
12	0	0	0	0	510	516	0	484	39	8	
13	0	0	0	0	507	513	0	513	39	8	
14	0	0	0	0	508	511	0	522	39	8	
15	0	0	0	0	505	509	0	540	39	8	
0	0	0	0	0	512	508	0	551	39	8	
1	0	0	0	0	510	505	0	551	39	8	
2	0	0	0	0	511	503	0	572	39	8	
3	0	0	0	0	512	502	0	557	39	8	
4	0	0	0	0	504	500	0	563	39	8	
5	0	0	0	0	504	498	0	562	39	8	
6	0	0	0	0	505	496	0	560	39	8	
7	0	0	0	0	515	493	0	568	39	8	
8	0	0	0	0	511	490	0	557	39	8	
9	0	0	0	0	507	486	0	550	39	8	
10	0	0	0	0	512	483	0	533	39	8	
11	0	0	0	0	508	479	0	519	39	8	
12	0	0	0	0	506	476	0	507	39	8	
13	0	0	0	0	507	472	0	499	39	8	
14	0	0	0	0	505	468	0	492	39	8	
15	0	0	0	0	501	465	0	488	39	8	
0	0	0	0	0	505	463	0	484	39	8	
1	0	0	0	0	508	459	0	479	39	8	
2	0	0	0	0	504	455	0	480	39	8	
3	0	0	0	0	504	451	0	477	39	8	
4	0	0	0	0	512	448	0	478	38	8	
5	0	0	0	0	510	444	0	480	38	8	
6	0	0	0	0	508	441	0	484	38	8	
7	0	0	0	0	509	438	0	486	38	8	
8	0	0	0	0	515	436	0	482	39	8	
9	0	0	0	0	515	435	0	496	39	8	
10	0	0	0	0	508	433	0	483	39	8	
11	0	0	0	0	508	433	0	486	39	8	
12	0	0	0	0	503	432	0	487	39	8	
13	0	0	0	0	514	432	0	489	39	8	
14	0	0	0	0	503	432	0	490	39	8	
15	0	0	0	0	511	431	0	489	39	8	
0	0	0	0	0	504	430	0	487	39	8	
1	0	0	0	0	508	429	0	480	38	8	
2	0	0	0	0	504	429	0	481	39	8	
3	0	0	0	0	508	429	0	482	39	8	
4	0	0	0	0	510	429	0	483	39	8	
5	0	0	0	0	505	430	0	485	39	8	
6	0	0	0	0	503	430	0	487	39	8	
7	0	0	0	0	507	430	0	485	39	8	
8	0	0	0	0	507	431	0	481	39	8	
9	0	0	0	0	502	431	0	481	39	8	
10	0	0	0	0	503	432	0	478	39	8	
11	0	0	0	0	515	433	0	483	39	8	
12	0	0	0	0	507	433	0	485	39	8	
13	0	0	0	0	505	434	0	488	39	8	
14	0	0	0	0	504	435	0	490	39	8	
15	0	0	0	0	504	435	0	491	39	8	
0	0	0	0	0	510	436	0	492	38	8	
1	0	0	0	0	505	437	0	487	39	8	
2	0	0	0	0	511	438	0	485	39	8	
3	0	0	0	0	510	440	0	486	39	8	
4	0	0	0	0	509	440	0	494	39	8	
5	0	0	0	0	504	441	0	524	39	8	
6	0	0	0	0	508	442	0	533	39	8	
7	0	0	0	0	513	443	0	547	38	8	
8	0	0	0	0	501	444	0	561	39	8	
9	0	0	0	0	504	445	0	560	38	8	
10	0	0	0	0	508	447	0	573	39	8	
11	0	0	0	0	509	448	0	569	39	8	
12	0	0	0	0	509	449	0	575	39	8	
13	0	0	0	0	509	451	0	577	39	8	
14	0	0	0	0	515	453	0	572	39	8	
15	0	0	0	0	515	455	0	581	39	8	
0	0	0	0	0	515	457	0	575	39	8	
1	0	0	0	0	500	459	0	574	39	8	
2	0	0	0	0	501	459	0	576	39	8	
3	0	0	0	0	504	461	0	568	39	8	
4	0	0	0	0	504	462	0	577	39	8	
5	0	0	0	0	502	464	0	577	39	8	
6	0	0	0	0	505	465	0	577	39	8	
7	0	0	0	0	516	466	0	578	39	8	
8	0	0	0	0	511	467	0	565	39	8	
9	0	0	0	0	507	468	0	553	39	8	
10	0	0	0	0	504	469	0	538	39	8	
11	0	0	0	0	505	471	0	522	38	8	
12	0	0	0	0	510	472	0	512	39	8	
13	0	0	0	0	513	473	0	507	39	8	
14	0	0	0	0	509	475	0	501	39	8	
15	0	0	0	0	499	475	0	498	39	8	
0	0	0	0	0	503	476	0	492	39	8	
1	0	0	0	0	508	478	0	488	38	8	
2	0	0	0	0	508	479	0	487	39	8	
3	0	0	0	0	511	480	0	488	39	8	
4	0	0	0	0	504	480	0	492	39	8	
5	0	0	0	0	509	480	0	490	38	8	
6	0	0	0	0	516	481	0	491	38	8	
7	0	0	0	0	507	482	0	491	38	8	
8	0	0	0	0	505	483	0	488	39	8	
9	0	0	0	0	509	484	0	484	38	8	
10	0	0	0	0	511	485	0	485	39	8	
11	0	0	0	0	508	486	0	485	39	8	
12	0	0	0	0	504	486	0	489	39	8	
13	0	0	0	0	507	487	0	492	39	8	
14	0	0	0	0	501	487	0	492	39	8	
15	0	0	0	0	515	488	0	489	39	8	
0	0	0	0	0	511	489	0	486	38	8	
1	0	0	0	0	512	491	0	482	38	8	
2	0	0	0	0	511	492	0	483	39	8	
3	0	0	0	0	508	492	0	486	39	8	
4	0	0	0	0	500	493	0	489	39	8	
5	0	0	0	0	512	494	0	489	39	8	
6	0	0	0	0	511	494	0	491	39	8	
7	0	0	0	0	506	495	0	492	39	8	
8	0	0	0	0	511	495	0	511	38	8	
9	0	0	0	0	501	496	0	524	38	8	
10	0	0	0	0	508	498	0	535	39	8	
11	0	0	0	0	504	498	0	557	39	8	
12	0	0	0	0	506	499	0	560	38	8	
13	0	0	0	0	504	501	0	580	38	8	
14	0	0	0	0	513	502	0	572	39	8	
15	0	0	0	0	511	503	0	567	39	8	
0	0	0	0	0	507	504	0	574	39	8	
1	0	0	0	0	512	504	0	568	39	8	
2	0	0	0	0	510	505	0	572	39	8	
3	0	0	0	0	512	507	0	569	38	8	
4	0	0	0	0	503	507	0	562	39	8	
5	0	0	0	0	505	508	0	550	39	8	
6	0	0	0	0	505	509	0	534	39	8	
7	0	0	0	0	504	510	0	520	39	8	
8	0	0	0	0	505	511	0	509	39	8	
9	0	0	0	0	505	511	0	500	39	8	
10	0	0	0	0	509	512	0	496	39	8	
11	0	0	0	0	512	512	0	494	39	8	
12	0	0	0	0	507	512	0	489	39	8	
13	0	0	0	0	515	513	0	488	39	8	
14	0	0	0	0	499	512	0	487	39	8	
15	0	0	0	0	514	512	0	488	39	8	
0	0	0	0	0	511	512	0	482	39	8	
1	0	0	0	0	507	512	0	479	39	8	
2	0	0	0	0	513	512	0	480	39	8	
3	0	0	0	0	510	512	0	479	39	8	
4	0	0	0	0	505	512	0	490	39	8	
5	0	0	0	0	504	513	0	482	39	8	
6	0	0	0	0	503	512	0	484	39	8	
7	0	0	0	0	503	513	0	480	39	8	
8	0	0	0	0	507	514	0	479	39	8	
9	0	0	0	0	507	515	0	475	38	8	
10	0	0	0	0	499	516	0	475	39	8	
11	0	0	0	0	513	517	0	477	38	8	
12	0	0	0	0	507	518	0	478	39	8	
13	0	0	0	0	503	519	0	491	39	8	
14	0	0	0	0	505	520	0	482	38	8	
15	0	0	0	0	505	521	0	481	39	8	
0	0	0	0	0	510	523	0	478	39	8	
1	0	0	0	0	510	524	0	491	38	8	
2	0	0	0	0	507	526	0	516	39	8	
3	0	0	0	0	512	527	0	524	38	8	
4	0	0	0	0	508	528	0	546	39	8	
5	0	0	0	0	506	529	0	552	39	8	
6	0	0	0	0	508	530	0	558	39	8	
7	0	0	0	0	510	529	0	563	38	8	
8	0	0	0	0	506	529	0	551	39	8	
9	0	0	0	0	515	528	0	571	39	8	
10	0	0	0	0	502	528	0	560	39	8	
11	0	0	0	0	504	527	0	561	39	8	
12	0	0	0	0	503	525	0	564	39	8	
13	0	0	0	0	506	524	0	556	39	8	
14	0	0	0	0	515	523	0	565	39	8	
15	0	0	0	0	507	520	0	555	39	8	
0	0	0	0	0	510	519	0	545	38	8	
1	0	0	0	0	508	517	0	532	39	8	
2	0	0	0	0	510	516	0	519	39	8	
3	0	0	0	0	510	515	0	508	39	8	
4	0	0	0	0	516	513	0	495	39	8	
5	0	0	0	0	504	511	0	487	38	8	
6	0	0	0	0	508	510	0	481	39	8	
7	0	0	0	0	505	509	0	479	39	8	
8	0	0	0	0	509	509	0	475	39	8	
9	0	0	0	0	508	508	0	468	39	8	
10	0	0	0	0	499	508	0	467	39	8	
11	0	0	0	0	505	507	0	468	38	8	
12	0	0	0	0	507	507	0	470	39	8	
13	0	0	0	0	508	506	0	474	39	8	
14	0	0	0	0	510	506	0	472	39	8	
15	0	0	0	0	510	506	0	470	39	8	
0	0	0	0	0	510	507	0	467	39	8	
1	0	0	0	0	511	506	0	465	39	8	
2	0	0	0	0	511	507	0	469	39	8	
3	0	0	0	0	505	506	0	465	39	8	
4	0	0	0	0	511	506	0	466	39	8	
5	0	0	0	0	508	506	0	469	39	8	
6	0	0	0	0	504	505	0	471	39	8	
7	0	0	0	0	511	505	0	473	39	8	
8	0	0	0	0	511	505	0	468	39	8	
9	0	0	0	0	506	504	0	467	39	8	
10	0	0	0	0	502	503	0	468	39	8	
11	0	0	0	0	500	502	0	472	39	8	
12	0	0	0	0	510	500	0	476	39	8	
13	0	0	0	0	509	499	0	499	39	8	
14	0	0	0	0	504	499	0	517	39	8	
15	0	0	0	0	509	496	0	527	39	8	
0	0	0	0	0	508	496	0	547	39	8	
1	0	0	0	0	508	494	0	541	39	8	
2	0	0	0	0	504	494	0	550	39	8	
3	0	0	0	0	509	492	0	555	39	8	
4	0	0	0	0	516	491	0	555	39	8	
5	0	0	0	0	501	490	0	564	39	8	
6	0	0	0	0	516	489	0	555	39	8	
7	0	0	0	0	510	487	0	575	39	8	
8	0	0	0	0	499	487	0	554	39	8	
9	0	0	0	0	504	487	0	545	39	8	
10	0	0	0	0	504	487	0	534	39	8	
11	0	0	0	0	507	487	0	519	38	8	
12	0	0	0	0	507	487	0	510	38	8	
13	0	0	0	0	510	486	0	499	39	8	
14	0	0	0	0	508	486	0	493	38	8	
15	0	0	0	0	515	486	0	489	38	8	
0	0	0	0	0	508	487	0	487	39	8	
1	0	0	0	0	508	487	0	484	39	8	
2	0	0	0	0	511	487	0	483	39	8	
3	0	0	0	0	510	487	0	483	39	8	
4	0	0	0	0	503	487	0	482	39	8	
5	0	0	0	0	499	487	0	483	39	8	
6	0	0	0	0	504	487	0	484	39	8	
7	0	0	0	0	502	486	0	483	39	8	
8	0	0	0	0	512	486	0	482	39	8	
9	0	0	0	0	515	485	0	478	38	8	
10	0	0	0	0	505	485	0	481	39	8	
11	0	0	0	0	503	484	0	481	39	8	
12	0	0	0	0	507	483	0	482	38	8	
13	0	0	0	0	515	483	0	483	39	8	
14	0	0	0	0	507	482	0	486	39	8	
15	0	0	0	0	510	481	0	484	39	8	
0	0	0	0	0	507	480	0	482	39	8	
1	0	0	0	0	508	478	0	483	38	8	
2	0	0	0	0	509	478	0	481	39	8	
3	0	0	0	0	507	477	0	484	39	8	
4	0	0	0	0	505	476	0	485	39	8	
5	0	0	0	0	504	475	0	487	39	8	
6	0	0	0	0	506	474	0	504	39	8	
7	0	0	0	0	505	473	0	524	39	8	
8	0	0	0	0	510	473	0	531	39	8	
9	0	0	0	0	512	472	0	548	38	8	
10	0	0	0	0	513	472	0	552	39	8	
11	0	0	0	0	503	471	0	558	39	8	
12	0	0	0	0	507	472	0	568	39	8	
13	0	0	0	0	507	471	0	565	39	8	
14	0	0	0	0	504	471	0	574	39	8	
15	0	0	0	0	510	471	0	564	39	8	
0	0	0	0	0	504	471	0	561	38	8	
1	0	0	0	0	503	471	0	568	39	8	
2	0	0	0	0	511	470	0	556	39	8	
3	0	0	0	0	510	471	0	550	39	8	
4	0	0	0	0	512	470	0	536	39	8	
5	0	0	0	0	508	469	0	520	39	8	
6	0	0	0	0	505	469	0	510	39	8	
7	0	0	0	0	504	469	0	502	39	8	
8	0	0	0	0	513	469	0	499	39	8	
9	0	0	0	0	507	469	0	516	39	8	
10	0	0	0	0	510	470	0	534	39	8	
11	0	0	0	0	507	469	0	541	39	8	
12	0	0	0	0	514	469	0	541	39	8	
13	0	0	0	0	505	470	0	534	38	8	
14	0	0	0	0	511	470	0	522	39	8	
15	0	0	0	0	506	471	0	529	39	8	
0	0	0	0	0	500	471	0	539	39	8	
1	0	0	0	0	505	472	0	537	38	8	
2	0	0	0	0	508	473	0	540	39	8	
3	0	0	0	0	501	473	0	532	38	8	
4	0	0	0	0	508	474	0	523	38	8	
5	0	0	0	0	506	474	0	517	39	8	
6	0	0	0	0	512	475	0	512	38	8	
7	0	0	0	0	508	476	0	507	38	8	
8	0	0	0	0	502	476	0	504	39	8	
9	0	0	0	0	505	477	0	510	39	8	
10	0	0	0	0	512	478	0	502	39	8	
11	0	0	0	0	503	480	0	503	39	8	
12	0	0	0	0	510	481	0	503	39	8	
13	0	0	0	0	511	483	0	503	39	8	
14	0	0	0	0	506	484	0	502	39	8	
15	0	0	0	0	505	485	0	501	39	8	
0	0	0	0	0	513	486	0	499	39	8	
1	0	0	0	0	512	488	0	495	39	8	
2	0	0	0	0	510	489	0	496	39	8	
3	0	0	0	0	498	490	0	501	39	8	
4	0	0	0	0	496	491	0	501	39	8	
5	0	0	0	0	507	492	0	505	39	8	
6	0	0	0	0	513	494	0	507	39	8	
7	0	0	0	0	513	494	0	504	39	8	
8	0	0	0	0	506	495	0	500	39	8	
9	0	0	0	0	506	496	0	498	39	8	
10	0	0	0	0	514	496	0	515	39	8	
11	0	0	0	0	506	496	0	504	39	8	
12	0	0	0	0	508	497	0	507	39	8	
13	0	0	0	0	500	498	0	507	38	8	
14	0	0	0	0	505	498	0	518	39	8	
15	0	0	0	0	510	499	0	545	39	8	
0	0	0	0	0	505	499	0	551	39	8	
1	0	0	0	0	508	499	0	570	38	8	
2	0	0	0	0	513	499	0	579	39	8	
3	0	0	0	0	508	500	0	583	39	8	
4	0	0	0	0	508	500	0	595	39	8	
5	0	0	0	0	507	500	0	588	39	8	
6	0	0	0	0	505	500	0	592	39	8	
7	0	0	0	0	508	503	0	590	39	8	
8	0	0	0	0	511	504	0	584	39	8	
9	0	0	0	0	502	508	0	591	39	8	
10	0	0	0	0	505	511	0	582	39	8	
11	0	0	0	0	510	516	0	581	39	8	
12	0	0	0	0	509	520	0	564	39	8	
13	0	0	0	0	512	525	0	550	39	8	
14	0	0	0	0	509	528	0	536	39	8	
15	0	0	0	0	510	534	0	527	39	8	
0	0	0	0	0	509	537	0	519	39	8	
1	0	0	0	0	501	543	0	513	39	8	
2	0	0	0	0	502	547	0	510	39	8	
3	0	0	0	0	512	552	0	508	39	8	
4	0	0	0	0	509	557	0	507	39	8	
5	0	0	0	0	507	562	0	507	39	8	
6	0	0	0	0	502	567	0	506	39	8	
7	0	0	0	0	507	570	0	507	39	8	
8	0	0	0	0	510	573	0	502	39	8	
9	0	0	0	0	504	576	0	498	39	8	
10	0	0	0	0	518	578	0	498	39	8	
11	0	0	0	0	512	580	0	499	38	8	
12	0	0	0	0	513	582	0	504	39	8	
13	0	0	0	0	508	583	0	505	38	8	
14	0	0	0	0	504	585	0	507	39	8	
15	0	0	0	0	511	587	0	505	39	8	
0	0	0	0	0	510	589	0	500	39	8	
1	0	0	0	0	501	591	0	497	39	8	
2	0	0	0	0	499	591	0	498	39	8	
3	0	0	0	0	503	593	0	502	39	8	
4	0	0	0	0	510	594	0	501	39	8	
5	0	0	0	0	507	596	0	501	38	8	
6	0	0	0	0	511	597	0	500	39	8	
7	0	0	0	0	510	598	0	500	39	8	
8	0	0	0	0	508	598	0	497	39	8	
9	0	0	0	0	509	599	0	492	39	8	
10	0	0	0	0	514	600	0	491	39	8	
11	0	0	0	0	504	600	0	491	39	8	
12	0	0	0	0	514	601	0	495	39	8	
13	0	0	0	0	510	601	0	500	39	8	
14	0	0	0	0	505	601	0	499	39	8	
15	0	0	0	0	508	602	0	497	39	8	
0	0	0	0	0	510	602	0	493	39	8	
1	0	0	0	0	508	603	0	492	39	8	
2	0	0	0	0	508	603	0	491	39	8	
3	0	0	0	0	508	603	0	492	38	8	
4	0	0	0	0	506	604	0	494	38	8	
5	0	0	0	0	508	604	0	494	39	8	
6	0	0	0	0	504	604	0	497	38	8	
7	0	0	0	0	504	603	0	495	38	8	
8	0	0	0	0	506	603	0	491	39	8	
9	0	0	0	0	501	600	0	491	38	8	
10	0	0	0	0	511	599	0	489	39	8	
11	0	0	0	0	511	597	0	494	39	8	
12	0	0	0	0	504	595	0	494	39	8	
13	0	0	0	0	511	592	0	496	39	8	
14	0	0	0	0	506	590	0	494	39	8	
15	0	0	0	0	514	588	0	490	39	8	
0	0	0	0	0	506	585	0	485	39	8	
1	0	0	0	0	504	582	0	483	39	8	
2	0	0	0	0	503	579	0	505	39	8	
3	0	0	0	0	506	577	0	526	39	8	
4	0	0	0	0	512	575	0	538	39	8	
5	0	0	0	0	511	572	0	560	39	8	
6	0	0	0	0	511	570	0	560	39	8	
7	0	0	0	0	508	568	0	569	39	8	
8	0	0	0	0	507	566	0	567	39	8	
9	0	0	0	0	505	565	0	560	39	8	
10	0	0	0	0	507	564	0	569	39	8	
11	0	0	0	0	504	563	0	561	39	8	
12	0	0	0	0	511	562	0	566	38	8	
13	0	0	0	0	511	561	0	563	39	8	
14	0	0	0	0	511	560	0	559	39	8	
15	0	0	0	0	504	559	0	563	38	8	
0	0	0	0	0	515	558	0	549	39	8	
1	0	0	0	0	504	558	0	552	39	8	
2	0	0	0	0	504	557	0	555	39	8	
3	0	0	0	0	504	556	0	554	38	8	
4	0	0	0	0	503	555	0	564	38	8	
5	0	0	0	0	504	554	0	554	39	8	
6	0	0	0	0	508	553	0	569	39	8	
7	0	0	0	0	513	550	0	553	38	8	
8	0	0	0	0	515	549	0	546	39	8	
9	0	0	0	0	510	547	0	555	39	8	
10	0	0	0	0	502	545	0	549	39	8	
11	0	0	0	0	508	542	0	558	39	8	
12	0	0	0	0	511	540	0	556	39	8	
13	0	0	0	0	508	537	0	548	39	8	
14	0	0	0	0	514	535	0	540	39	8	
15	0	0	0	0	506	532	0	548	38	8	
0	0	0	0	0	507	531	0	544	39	8	
1	0	0	0	0	502	528	0	535	39	8	
2	0	0	0	0	504	525	0	524	39	8	
3	0	0	0	0	508	523	0	512	39	8	
4	0	0	0	0	500	520	0	502	38	8	
5	0	0	0	0	518	517	0	493	39	8	
6	0	0	0	0	506	515	0	486	39	8	
7	0	0	0	0	510	513	0	495	39	8	
8	0	0	0	0	505	511	0	480	39	8	
9	0	0	0	0	510	510	0	475	39	8	
10	0	0	0	0	504	508	0	472	39	8	
11	0	0	0	0	512	507	0	472	39	8	
12	0	0	0	0	505	506	0	475	39	8	
13	0	0	0	0	510	504	0	474	38	8	
14	0	0	0	0	508	504	0	478	39	8	
15	0	0	0	0	509	502	0	477	39	8	
0	0	0	0	0	506	501	0	473	38	8	
1	0	0	0	0	506	500	0	472	39	8	
2	0	0	0	0	507	499	0	472	39	8	
3	0	0	0	0	505	498	0	475	39	8	
4	0	0	0	0	503	498	0	477	38	8	
5	0	0	0	0	509	497	0	479	38	8	
6	0	0	0	0	505	496	0	481	39	8	
7	0	0	0	0	511	496	0	481	39	8	
8	0	0	0	0	515	495	0	480	38	8	
9	0	0	0	0	505	494	0	474	39	8	
10	0	0	0	0	510	494	0	473	39	8	
11	0	0	0	0	508	494	0	475	39	8	
12	0	0	0	0	500	493	0	478	39	8	
13	0	0	0	0	506	492	0	484	39	8	
14	0	0	0	0	511	491	0	505	39	8	
15	0	0	0	0	506	491	0	526	39	8	
0	0	0	0	0	509	491	0	532	38	8	
1	0	0	0	0	507	491	0	549	38	8	
2	0	0	0	0	506	490	0	547	39	8	
3	0	0	0	0	509	489	0	558	38	8	
4	0	0	0	0	512	488	0	564	38	8	
5	0	0	0	0	501	487	0	563	39	8	
6	0	0	0	0	509	487	0	572	39	8	
7	0	0	0	0	513	487	0	559	39	8	
8	0	0	0	0	513	486	0	563	39	8	
9	0	0	0	0	510	486	0	559	38	8	
10	0	0	0	0	510	485	0	553	39	8	
11	0	0	0	0	500	486	0	542	39	8	
12	0	0	0	0	507	485	0	527	39	8	
13	0	0	0	0	512	486	0	515	38	8	
14	0	0	0	0	510	485	0	502	38	8	
15	0	0	0	0	507	486	0	496	39	8	
0	0	0	0	0	509	485	0	496	39	8	
1	0	0	0	0	502	485	0	516	39	8	
2	0	0	0	0	503	485	0	529	39	8	
3	0	0	0	0	504	485	0	534	39	8	
4	0	0	0	0	504	484	0	531	39	8	
5	0	0	0	0	513	484	0	522	39	8	
6	0	0	0	0	513	484	0	512	39	8	
7	0	0	0	0	503	484	0	503	39	8	
8	0	0	0	0	511	484	0	493	39	8	
9	0	0	0	0	508	484	0	487	39	8	
10	0	0	0	0	502	485	0	481	39	8	
11	0	0	0	0	504	484	0	480	39	8	
12	0	0	0	0	512	483	0	480	39	8	
13	0	0	0	0	505	483	0	481	39	8	
14	0	0	0	0	510	483	0	480	39	8	
15	0	0	0	0	503	483	0	479	38	8	
0	0	0	0	0	513	483	0	473	39	8	
1	0	0	0	0	510	482	0	467	38	8	
2	0	0	0	0	510	481	0	465	39	8	
3	0	0	0	0	499	481	0	468	39	8	
4	0	0	0	0	502	481	0	472	39	8	
5	0	0	0	0	504	480	0	475	38	8	
6	0	0	0	0	509	480	0	476	38	8	
7	0	0	0	0	517	479	0	476	38	8	
8	0	0	0	0	504	478	0	472	38	8	
9	0	0	0	0	516	478	0	469	39	8	
10	0	0	0	0	499	478	0	469	39	8	
11	0	0	0	0	503	477	0	472	39	8	
12	0	0	0	0	503	477	0	473	39	8	
13	0	0	0	0	509	477	0	477	39	8	
14	0	0	0	0	502	476	0	485	39	8	
15	0	0	0	0	508	476	0	480	39	8	
0	0	0	0	0	504	475	0	500	38	8	
1	0	0	0	0	511	474	0	514	38	8	
2	0	0	0	0	514	474	0	525	39	8	
3	0	0	0	0	510	473	0	549	39	8	
4	0	0	0	0	511	473	0	551	39	8	
5	0	0	0	0	501	473	0	563	38	8	
6	0	0	0	0	507	473	0	566	38	8	
7	0	0	0	0	510	473	0	564	39	8	
8	0	0	0	0	509	473	0	574	39	8	
9	0	0	0	0	506	474	0	564	39	8	
10	0	0	0	0	507	475	0	568	39	8	
11	0	0	0	0	511	475	0	567	39	8	
12	0	0	0	0	507	475	0	560	39	8	
13	0	0	0	0	515	474	0	555	38	8	
14	0	0	0	0	509	475	0	565	39	8	
15	0	0	0	0	510	475	0	560	39	8	
0	0	0	0	0	499	476	0	552	38	8	
1	0	0	0	0	510	476	0	540	39	8	
2	0	0	0	0	510	476	0	525	39	8	
3	0	0	0	0	499	476	0	514	39	8	
4	0	0	0	0	509	476	0	505	39	8	
5	0	0	0	0	502	477	0	496	38	8	
6	0	0	0	0	510	477	0	491	39	8	
7	0	0	0	0	505	477	0	489	39	8	
8	0	0	0	0	505	477	0	483	39	8	
9	0	0	0	0	504	477	0	479	39	8	
10	0	0	0	0	507	477	0	479	39	8	
11	0	0	0	0	512	477	0	480	39	8	
12	0	0	0	0	507	477	0	481	39	8	
13	0	0	0	0	509	476	0	484	39	8	
14	0	0	0	0	504	476	0	483	39	8	
15	0	0	0	0	513	476	0	482	39	8	
0	0	0	0	0	509	476	0	477	39	8	
1	0	0	0	0	508	475	0	473	39	8	
2	0	0	0	0	512	474	0	472	39	8	
3	0	0	0	0	507	473	0	473	39	8	
4	0	0	0	0	510	473	0	477	39	8	
5	0	0	0	0	513	473	0	475	39	8	
6	0	0	0	0	507	473	0	476	39	8	
7	0	0	0	0	508	472	0	475	39	8	
8	0	0	0	0	500	472	0	473	39	8	
9	0	0	0	0	511	472	0	480	39	8	
10	0	0	0	0	512	472	0	469	39	8	
11	0	0	0	0	506	471	0	472	39	8	
12	0	0	0	0	508	471	0	476	39	8	
13	0	0	0	0	508	471	0	500	39	8	
14	0	0	0	0	511	471	0	532	39	8	
15	0	0	0	0	498	471	0	531	39	8	
0	0	0	0	0	501	471	0	547	39	8	
1	0	0	0	0	511	470	0	544	39	8	
2	0	0	0	0	505	470	0	553	39	8	
3	0	0	0	0	508	469	0	560	39	8	
4	0	0	0	0	512	468	0	562	38	8	
5	0	0	0	0	503	468	0	572	38	8	
6	0	0	0	0	511	467	0	563	39	8	
7	0	0	0	0	508	468	0	566	38	8	
8	0	0	0	0	517	469	0	561	38	8	
9	0	0	0	0	505	471	0	552	39	8	
10	0	0	0	0	504	472	0	540	39	8	
11	0	0	0	0	500	475	0	525	39	8	
12	0	0	0	0	511	476	0	513	39	8	
13	0	0	0	0	506	478	0	499	39	8	
14	0	0	0	0	504	480	0	490	39	8	
15	0	0	0	0	504	483	0	483	39	8	
0	0	0	0	0	506	486	0	480	39	8	
1	0	0	0	0	509	488	0	476	39	8	
2	0	0	0	0	505	491	0	474	39	8	
3	0	0	0	0	507	494	0	475	39	8	
4	0	0	0	0	506	496	0	472	39	8	
5	0	0	0	0	506	498	0	472	39	8	
6	0	0	0	0	508	500	0	471	39	8	
7	0	0	0	0	508	503	0	470	39	8	
8	0	0	0	0	504	505	0	467	39	8	
9	0	0	0	0	510	509	0	463	39	8	
10	0	0	0	0	504	512	0	478	39	8	
11	0	0	0	0	508	516	0	466	39	8	
12	0	0	0	0	517	519	0	470	38	8	
13	0	0	0	0	512	523	0	471	38	8	
14	0	0	0	0	517	526	0	473	38	8	
15	0	0	0	0	508	529	0	473	38	8	
0	0	0	0	0	501	532	0	469	39	8	
1	0	0	0	0	505	536	0	467	39	8	
2	0	0	0	0	506	539	0	467	39	8	
3	0	0	0	0	508	543	0	469	39	8	
4	0	0	0	0	504	545	0	475	39	8	
5	0	0	0	0	513	549	0	474	39	8	
6	0	0	0	0	511	552	0	491	39	8	
7	0	0	0	0	507	552	0	510	39	8	
8	0	0	0	0	513	553	0	515	39	8	
9	0	0	0	0	506	552	0	536	39	8	
10	0	0	0	0	511	551	0	540	39	8	
11	0	0	0	0	511	549	0	546	39	8	
12	0	0	0	0	507	548	0	557	39	8	
13	0	0	0	0	507	546	0	555	39	8	
14	0	0	0	0	505	544	0	563	39	8	
15	0	0	0	0	508	542	0	553	39	8	
0	0	0	0	0	502	540	0	553	39	8	
1	0	0	0	0	511	537	0	552	39	8	
2	0	0	0	0	507	535	0	545	39	8	
3	0	0	0	0	505	531	0	538	39	8	
4	0	0	0	0	504	529	0	535	39	8	
5	0	0	0	0	508	527	0	524	39	8	
6	0	0	0	0	504	525	0	510	39	8	
7	0	0	0	0	518	524	0	502	39	8	
8	0	0	0	0	506	524	0	493	39	8	
9	0	0	0	0	513	524	0	487	38	8	
10	0	0	0	0	508	525	0	480	39	8	
11	0	0	0	0	504	526	0	478	39	8	
12	0	0	0	0	506	527	0	477	39	8	
13	0	0	0	0	502	529	0	476	39	8	
14	0	0	0	0	510	531	0	476	39	8	
15	0	0	0	0	507	533	0	473	39	8	
0	0	0	0	0	508	535	0	471	39	8	
1	0	0	0	0	505	536	0	467	39	8	
2	0	0	0	0	504	538	0	467	39	8	
3	0	0	0	0	510	540	0	470	39	8	
4	0	0	0	0	508	542	0	472	38	8	
5	0	0	0	0	506	544	0	474	39	8	
6	0	0	0	0	505	546	0	477	39	8	
7	0	0	0	0	504	547	0	476	38	8	
8	0	0	0	0	516	547	0	474	39	8	
9	0	0	0	0	511	547	0	472	39	8	
10	0	0	0	0	504	547	0	472	39	8	
11	0	0	0	0	506	547	0	475	38	8	
12	0	0	0	0	507	546	0	476	38	8	
13	0	0	0	0	508	546	0	477	38	8	
14	0	0	0	0	511	546	0	475	38	8	
15	0	0	0	0	510	546	0	475	38	8	
0	0	0	0	0	494	545	0	476	39	8	
1	0	0	0	0	507	544	0	499	39	8	
2	0	0	0	0	512	544	0	513	39	8	
3	0	0	0	0	508	544	0	529	39	8	
4	0	0	0	0	507	543	0	544	39	8	
5	0	0	0	0	511	543	0	544	39	8	
6	0	0	0	0	509	542	0	556	39	8	
7	0	0	0	0	511	542	0	551	39	8	
8	0	0	0	0	505	543	0	551	39	8	
9	0	0	0	0	505	545	0	552	39	8	
10	0	0	0	0	506	545	0	545	39	8	
11	0	0	0	0	509	547	0	552	39	8	
12	0	0	0	0	508	548	0	551	38	8	
13	0	0	0	0	509	550	0	544	39	8	
14	0	0	0	0	501	551	0	543	38	8	
15	0	0	0	0	510	553	0	552	39	8	
0	0	0	0	0	521	554	0	545	39	8	
1	0	0	0	0	509	556	0	537	39	8	
2	0	0	0	0	504	557	0	524	39	8	
3	0	0	0	0	509	559	0	510	39	8	
4	0	0	0	0	511	560	0	501	39	8	
5	0	0	0	0	508	562	0	492	39	8	
6	0	0	0	0	502	563	0	486	39	8	
7	0	0	0	0	505	563	0	480	38	8	
8	0	0	0	0	509	564	0	477	39	8	
9	0	0	0	0	509	565	0	471	39	8	
10	0	0	0	0	500	565	0	472	39	8	
11	0	0	0	0	508	565	0	471	39	8	
12	0	0	0	0	511	565	0	475	39	8	
13	0	0	0	0	509	566	0	473	39	8	
14	0	0	0	0	505	566	0	478	39	8	
15	0	0	0	0	509	565	0	475	39	8	
0	0	0	0	0	508	564	0	477	39	8	
1	0	0	0	0	507	563	0	472	38	8	
2	0	0	0	0	500	563	0	476	39	8	
3	0	0	0	0	504	563	0	477	39	8	
4	0	0	0	0	503	563	0	486	39	8	
5	0	0	0	0	516	562	0	483	39	8	
6	0	0	0	0	508	562	0	485	39	8	
7	0	0	0	0	511	561	0	483	39	8	
8	0	0	0	0	513	561	0	488	39	8	
9	0	0	0	0	505	560	0	478	39	8	
10	0	0	0	0	499	559	0	488	39	8	
11	0	0	0	0	504	558	0	479	38	8	
12	0	0	0	0	516	556	0	480	39	8	
13	0	0	0	0	509	555	0	484	38	8	
14	0	0	0	0	509	554	0	486	38	8	
15	0	0	0	0	511	552	0	484	38	8	
0	0	0	0	0	515	551	0	480	39	8	
1	0	0	0	0	505	550	0	478	39	8	
2	0	0	0	0	508	549	0	478	39	8	
3	0	0	0	0	503	548	0	480	39	8	
4	0	0	0	0	508	547	0	482	39	8	
5	0	0	0	0	505	546	0	483	38	8	
6	0	0	0	0	512	545	0	484	39	8	
7	0	0	0	0	505	543	0	483	38	8	
8	0	0	0	0	504	541	0	481	39	8	
9	0	0	0	0	508	540	0	477	39	8	
10	0	0	0	0	511	538	0	478	39	8	
11	0	0	0	0	501	536	0	482	39	8	
12	0	0	0	0	509	535	0	486	39	8	
13	0	0	0	0	506	532	0	488	38	8	
14	0	0	0	0	508	530	0	491	39	8	
15	0	0	0	0	507	528	0	507	39	8	
0	0	0	0	0	513	527	0	526	39	8	
1	0	0	0	0	506	525	0	531	38	8	
2	0	0	0	0	502	523	0	552	39	8	
3	0	0	0	0	511	521	0	559	39	8	
4	0	0	0	0	502	519	0	567	38	8	
5	0	0	0	0	504	518	0	574	39	8	
6	0	0	0	0	507	515	0	568	39	8	
7	0	0	0	0	505	512	0	576	38	8	
8	0	0	0	0	511	510	0	566	39	8	
9	0	0	0	0	507	505	0	564	39	8	
10	0	0	0	0	509	502	0	568	39	8	
11	0	0	0	0	508	498	0	561	39	8	
12	0	0	0	0	512	495	0	571	39	8	
13	0	0	0	0	513	491	0	565	39	8	
14	0	0	0	0	507	487	0	565	39	8	
15	0	0	0	0	508	482	0	568	39	8	
0	0	0	0	0	509	479	0	560	39	8	
1	0	0	0	0	507	475	0	567	39	8	
2	0	0	0	0	505	471	0	560	39	8	
3	0	0	0	0	511	466	0	552	39	8	
4	0	0	0	0	496	463	0	541	39	8	
5	0	0	0	0	510	459	0	527	39	8	
6	0	0	0	0	506	455	0	514	39	8	
7	0	0	0	0	507	451	0	504	39	8	
8	0	0	0	0	510	449	0	494	39	8	
9	0	0	0	0	511	446	0	485	39	8	
10	0	0	0	0	515	444	0	483	39	8	
11	0	0	0	0	505	442	0	482	39	8	
12	0	0	0	0	503	440	0	480	39	8	
13	0	0	0	0	513	438	0	480	39	8	
14	0	0	0	0	503	436	0	481	39	8	
15	0	0	0	0	505	434	0	480	39	8	
0	0	0	0	0	504	433	0	477	39	8	
1	0	0	0	0	508	431	0	473	38	8	
2	0	0	0	0	517	430	0	473	39	8	
3	0	0	0	0	507	428	0	476	39	8	
4	0	0	0	0	502	427	0	482	39	8	
5	0	0	0	0	507	425	0	482	39	8	
6	0	0	0	0	515	424	0	486	39	8	
7	0	0	0	0	503	423	0	483	39	8	
8	0	0	0	0	510	422	0	482	39	8	
9	0	0	0	0	504	421	0	477	39	8	
10	0	0	0	0	509	420	0	480	39	8	
11	0	0	0	0	506	419	0	478	38	8	
12	0	0	0	0	507	418	0	483	38	8	
13	0	0	0	0	509	417	0	483	39	8	
14	0	0	0	0	510	416	0	488	39	8	
15	0	0	0	0	510	415	0	491	39	8	
0	0	0	0	0	503	415	0	512	38	8	
1	0	0	0	0	512	414	0	523	39	8	
2	0	0	0	0	504	413	0	535	39	8	
3	0	0	0	0	504	412	0	556	39	8	
4	0	0	0	0	504	411	0	559	39	8	
5	0	0	0	0	511	410	0	568	39	8	
6	0	0	0	0	509	409	0	571	39	8	
7	0	0	0	0	510	408	0	564	39	8	
8	0	0	0	0	508	407	0	573	38	8	
9	0	0	0	0	509	406	0	564	38	8	
10	0	0	0	0	507	404	0	569	39	8	
11	0	0	0	0	510	402	0	569	38	8	
12	0	0	0	0	506	401	0	563	39	8	
13	0	0	0	0	500	399	0	557	39	8	
14	0	0	0	0	506	398	0	568	39	8	
15	0	0	0	0	513	395	0	564	39	8	
0	0	0	0	0	508	393	0	558	38	8	
1	0	0	0	0	504	391	0	547	39	8	
2	0	0	0	0	510	390	0	530	39	8	
3	0	0	0	0	507	387	0	516	39	8	
4	0	0	0	0	516	386	0	505	39	8	
5	0	0	0	0	511	384	0	497	38	8	
6	0	0	0	0	511	382	0	492	39	8	
