# OpenSignals Text File Format. Version 1
# {"98:D3:51:FD:71:01": {"position": 0, "device": "bitalino_rev", "device name": "98:D3:51:FD:71:01", "device connection": "BTH98:D3:51:FD:71:01", "sampling rate": 1000, "resolution": [4, 1, 1, 1, 1, 10, 10, 10, 10, 6, 6], "firmware version": 1282, "comments": "", "keywords": "", "mode": 0, "sync interval": 2, "date": "2024-4-19", "time": "12:12:53.58", "channels": [1, 2, 3, 4, 5, 6], "sensor": ["RAW", "RAW", "RAW", "RAW", "RAW", "RAW"], "label": ["A1", "A2", "A3", "A4", "A5", "A6"], "column": ["nSeq", "I1", "I2", "O1", "O2", "A1", "A2", "A3", "A4", "A5", "A6"], "special": [{}, {}, {}, {}, {}, {}], "digital IO": [0, 0, 1, 1]}}
# EndOfHeader
0	0	0	0	0	507	498	0	480	39	9	
1	0	0	0	0	511	498	0	483	39	9	
2	0	0	0	0	516	498	0	483	39	9	
3	0	0	0	0	505	498	0	486	39	9	
4	0	0	0	0	503	499	0	484	39	9	
5	0	0	0	0	504	499	0	497	39	9	
6	0	0	0	0	502	499	0	517	39	9	
7	0	0	0	0	511	499	0	543	38	9	
8	0	0	0	0	508	499	0	559	39	9	
9	0	0	0	0	504	499	0	578	39	9	
10	0	0	0	0	508	500	0	581	39	9	
11	0	0	0	0	505	500	0	603	39	9	
12	0	0	0	0	515	500	0	589	39	9	
13	0	0	0	0	513	500	0	591	39	9	
14	0	0	0	0	504	499	0	587	39	9	
15	0	0	0	0	504	499	0	585	39	9	
0	0	0	0	0	508	500	0	584	39	9	
1	0	0	0	0	504	500	0	584	39	9	
2	0	0	0	0	508	499	0	583	39	9	
3	0	0	0	0	511	499	0	583	39	9	
4	0	0	0	0	510	500	0	582	39	9	
5	0	0	0	0	514	500	0	581	39	9	
6	0	0	0	0	511	501	0	575	39	9	
7	0	0	0	0	508	501	0	569	39	9	
8	0	0	0	0	510	501	0	565	39	9	
9	0	0	0	0	507	501	0	571	39	9	
10	0	0	0	0	506	502	0	560	39	9	
11	0	0	0	0	507	502	0	562	39	9	
12	0	0	0	0	509	502	0	557	39	9	
13	0	0	0	0	505	502	0	548	39	9	
14	0	0	0	0	501	502	0	535	39	9	
15	0	0	0	0	505	502	0	518	39	9	
0	0	0	0	0	504	502	0	502	39	9	
1	0	0	0	0	513	502	0	488	39	9	
2	0	0	0	0	503	502	0	480	39	9	
3	0	0	0	0	511	502	0	476	39	9	
4	0	0	0	0	508	502	0	472	39	9	
5	0	0	0	0	507	503	0	468	38	9	
6	0	0	0	0	508	502	0	465	39	9	
7	0	0	0	0	505	502	0	465	39	9	
8	0	0	0	0	505	503	0	464	38	9	
9	0	0	0	0	510	503	0	463	39	9	
10	0	0	0	0	509	503	0	461	39	9	
11	0	0	0	0	507	502	0	461	39	9	
12	0	0	0	0	504	503	0	460	38	9	
13	0	0	0	0	503	503	0	460	38	9	
14	0	0	0	0	507	503	0	463	39	9	
15	0	0	0	0	511	503	0	462	38	9	
0	0	0	0	0	509	503	0	460	39	9	
1	0	0	0	0	511	504	0	459	38	9	
2	0	0	0	0	511	503	0	459	38	9	
3	0	0	0	0	499	503	0	459	38	9	
4	0	0	0	0	508	504	0	457	38	9	
5	0	0	0	0	508	503	0	456	39	9	
6	0	0	0	0	505	504	0	457	39	9	
7	0	0	0	0	511	504	0	457	38	9	
8	0	0	0	0	507	505	0	458	38	9	
9	0	0	0	0	513	505	0	455	38	9	
10	0	0	0	0	508	505	0	456	38	9	
11	0	0	0	0	509	505	0	457	38	9	
12	0	0	0	0	513	506	0	464	38	9	
13	0	0	0	0	508	505	0	495	38	9	
14	0	0	0	0	507	505	0	505	39	9	
15	0	0	0	0	510	505	0	520	38	9	
0	0	0	0	0	503	505	0	530	39	9	
1	0	0	0	0	505	505	0	527	38	9	
2	0	0	0	0	505	504	0	541	39	9	
3	0	0	0	0	507	505	0	537	38	9	
4	0	0	0	0	503	504	0	541	39	9	
5	0	0	0	0	500	504	0	546	39	9	
6	0	0	0	0	504	504	0	542	39	9	
7	0	0	0	0	512	504	0	548	39	9	
8	0	0	0	0	506	505	0	539	39	9	
9	0	0	0	0	507	506	0	536	38	9	
10	0	0	0	0	511	506	0	544	39	9	
11	0	0	0	0	504	505	0	539	39	9	
12	0	0	0	0	506	505	0	532	39	9	
13	0	0	0	0	515	505	0	515	39	9	
14	0	0	0	0	512	505	0	499	39	9	
15	0	0	0	0	514	505	0	486	39	9	
0	0	0	0	0	501	505	0	478	39	9	
1	0	0	0	0	513	505	0	468	39	9	
2	0	0	0	0	507	504	0	463	38	9	
3	0	0	0	0	506	505	0	459	39	9	
4	0	0	0	0	504	505	0	459	39	9	
5	0	0	0	0	506	505	0	459	38	9	
6	0	0	0	0	511	506	0	461	39	9	
7	0	0	0	0	504	505	0	458	39	9	
8	0	0	0	0	511	505	0	454	39	9	
9	0	0	0	0	508	505	0	451	39	9	
10	0	0	0	0	515	505	0	452	39	9	
11	0	0	0	0	510	505	0	455	39	9	
12	0	0	0	0	507	505	0	455	39	9	
13	0	0	0	0	510	505	0	455	39	9	
14	0	0	0	0	496	505	0	456	39	9	
15	0	0	0	0	504	505	0	455	39	9	
0	0	0	0	0	511	505	0	453	39	9	
1	0	0	0	0	504	505	0	453	39	9	
2	0	0	0	0	501	505	0	451	39	9	
3	0	0	0	0	507	505	0	453	39	9	
4	0	0	0	0	509	505	0	455	39	9	
5	0	0	0	0	506	505	0	458	38	9	
6	0	0	0	0	506	504	0	459	39	9	
7	0	0	0	0	509	504	0	458	38	9	
8	0	0	0	0	503	503	0	468	39	9	
9	0	0	0	0	509	501	0	488	38	9	
10	0	0	0	0	504	498	0	497	39	9	
11	0	0	0	0	506	495	0	517	38	9	
12	0	0	0	0	505	492	0	527	39	9	
13	0	0	0	0	506	489	0	531	38	9	
14	0	0	0	0	510	485	0	546	39	9	
15	0	0	0	0	508	481	0	540	39	9	
0	0	0	0	0	510	478	0	547	39	9	
1	0	0	0	0	504	474	0	543	38	9	
2	0	0	0	0	507	471	0	542	39	9	
3	0	0	0	0	503	468	0	549	39	9	
4	0	0	0	0	512	464	0	543	39	9	
5	0	0	0	0	502	461	0	537	39	9	
6	0	0	0	0	504	457	0	540	38	9	
7	0	0	0	0	505	454	0	543	39	9	
8	0	0	0	0	512	449	0	536	39	9	
9	0	0	0	0	505	446	0	528	39	9	
10	0	0	0	0	508	443	0	515	38	9	
11	0	0	0	0	505	439	0	501	38	9	
12	0	0	0	0	512	435	0	492	39	9	
13	0	0	0	0	507	432	0	484	39	9	
14	0	0	0	0	510	430	0	480	39	9	
15	0	0	0	0	503	427	0	473	38	9	
0	0	0	0	0	509	424	0	467	39	9	
1	0	0	0	0	512	421	0	461	38	9	
2	0	0	0	0	504	418	0	460	39	9	
3	0	0	0	0	503	415	0	459	38	9	
4	0	0	0	0	510	412	0	459	39	9	
5	0	0	0	0	509	409	0	459	39	9	
6	0	0	0	0	511	406	0	461	39	9	
7	0	0	0	0	504	404	0	461	39	9	
8	0	0	0	0	506	402	0	460	39	9	
9	0	0	0	0	508	402	0	456	38	9	
10	0	0	0	0	511	401	0	456	39	9	
11	0	0	0	0	510	401	0	459	39	9	
12	0	0	0	0	507	401	0	462	39	9	
13	0	0	0	0	500	401	0	464	39	9	
14	0	0	0	0	508	402	0	464	39	9	
15	0	0	0	0	508	403	0	463	39	9	
0	0	0	0	0	508	403	0	459	39	9	
1	0	0	0	0	508	404	0	457	39	9	
2	0	0	0	0	503	405	0	457	39	9	
3	0	0	0	0	508	406	0	462	39	9	
4	0	0	0	0	512	407	0	462	39	9	
5	0	0	0	0	509	408	0	465	39	9	
6	0	0	0	0	513	409	0	467	39	9	
7	0	0	0	0	509	409	0	469	39	9	
8	0	0	0	0	504	409	0	468	39	9	
9	0	0	0	0	506	410	0	465	39	9	
10	0	0	0	0	508	411	0	468	39	9	
11	0	0	0	0	507	411	0	470	39	9	
12	0	0	0	0	505	412	0	472	39	9	
13	0	0	0	0	504	412	0	474	38	9	
14	0	0	0	0	514	413	0	474	39	9	
15	0	0	0	0	509	413	0	475	39	9	
0	0	0	0	0	505	414	0	469	39	9	
1	0	0	0	0	510	414	0	481	39	9	
2	0	0	0	0	505	414	0	464	39	9	
3	0	0	0	0	510	414	0	466	39	9	
4	0	0	0	0	520	414	0	470	39	9	
5	0	0	0	0	509	415	0	472	39	9	
6	0	0	0	0	501	415	0	475	38	9	
7	0	0	0	0	503	415	0	473	39	9	
8	0	0	0	0	509	414	0	469	39	9	
9	0	0	0	0	508	412	0	465	38	9	
10	0	0	0	0	499	411	0	466	39	9	
11	0	0	0	0	508	409	0	469	39	9	
12	0	0	0	0	508	407	0	471	38	9	
13	0	0	0	0	504	405	0	473	39	9	
14	0	0	0	0	508	403	0	475	38	9	
15	0	0	0	0	504	401	0	472	39	9	
0	0	0	0	0	502	399	0	469	39	9	
1	0	0	0	0	511	396	0	467	38	9	
2	0	0	0	0	504	394	0	466	38	9	
3	0	0	0	0	509	392	0	471	39	9	
4	0	0	0	0	505	390	0	472	39	9	
5	0	0	0	0	510	388	0	479	39	9	
6	0	0	0	0	510	386	0	502	39	9	
7	0	0	0	0	513	385	0	516	39	9	
8	0	0	0	0	516	386	0	527	39	9	
9	0	0	0	0	503	387	0	547	39	9	
10	0	0	0	0	497	388	0	547	39	9	
11	0	0	0	0	509	391	0	558	39	9	
12	0	0	0	0	508	392	0	560	39	9	
13	0	0	0	0	507	395	0	558	39	9	
14	0	0	0	0	508	398	0	566	39	9	
15	0	0	0	0	512	401	0	558	39	9	
0	0	0	0	0	507	403	0	561	39	9	
1	0	0	0	0	508	406	0	556	38	9	
2	0	0	0	0	511	410	0	551	38	9	
3	0	0	0	0	504	413	0	561	39	9	
4	0	0	0	0	507	416	0	557	39	9	
5	0	0	0	0	510	419	0	563	39	9	
6	0	0	0	0	512	422	0	564	39	9	
7	0	0	0	0	505	425	0	559	39	9	
8	0	0	0	0	500	430	0	568	39	9	
9	0	0	0	0	507	435	0	555	38	9	
10	0	0	0	0	510	439	0	560	38	9	
11	0	0	0	0	510	444	0	558	39	9	
12	0	0	0	0	503	448	0	557	39	9	
13	0	0	0	0	511	453	0	567	38	9	
14	0	0	0	0	504	457	0	562	38	9	
15	0	0	0	0	510	462	0	568	39	9	
0	0	0	0	0	512	467	0	564	39	9	
1	0	0	0	0	511	472	0	554	39	9	
2	0	0	0	0	505	476	0	542	39	9	
3	0	0	0	0	508	480	0	527	38	9	
4	0	0	0	0	505	485	0	513	39	9	
5	0	0	0	0	507	490	0	501	38	9	
6	0	0	0	0	506	495	0	493	39	9	
7	0	0	0	0	515	498	0	487	39	9	
8	0	0	0	0	509	504	0	482	39	9	
9	0	0	0	0	510	508	0	476	39	9	
10	0	0	0	0	507	512	0	474	38	9	
11	0	0	0	0	509	518	0	473	39	9	
12	0	0	0	0	511	522	0	475	38	9	
13	0	0	0	0	505	526	0	477	38	9	
14	0	0	0	0	505	530	0	476	38	9	
15	0	0	0	0	509	534	0	476	38	9	
0	0	0	0	0	506	539	0	473	39	9	
1	0	0	0	0	504	543	0	472	38	9	
2	0	0	0	0	502	547	0	471	39	9	
3	0	0	0	0	513	551	0	477	39	9	
4	0	0	0	0	509	555	0	476	39	9	
5	0	0	0	0	504	560	0	485	39	9	
6	0	0	0	0	507	563	0	482	39	9	
7	0	0	0	0	506	567	0	499	39	9	
8	0	0	0	0	506	571	0	481	39	9	
9	0	0	0	0	501	575	0	481	39	9	
10	0	0	0	0	501	578	0	481	39	9	
11	0	0	0	0	508	582	0	486	39	9	
12	0	0	0	0	515	586	0	484	38	9	
13	0	0	0	0	515	590	0	497	39	9	
14	0	0	0	0	510	593	0	503	39	9	
15	0	0	0	0	503	597	0	524	39	9	
0	0	0	0	0	505	600	0	527	39	9	
1	0	0	0	0	513	604	0	550	39	9	
2	0	0	0	0	513	608	0	552	39	9	
3	0	0	0	0	504	611	0	560	39	9	
4	0	0	0	0	501	614	0	571	39	9	
5	0	0	0	0	515	617	0	568	39	9	
6	0	0	0	0	510	620	0	575	39	9	
7	0	0	0	0	500	622	0	565	39	9	
8	0	0	0	0	511	624	0	563	39	9	
9	0	0	0	0	511	625	0	565	39	9	
10	0	0	0	0	502	626	0	557	39	9	
11	0	0	0	0	508	627	0	550	39	9	
12	0	0	0	0	511	627	0	534	39	9	
13	0	0	0	0	507	627	0	519	39	9	
14	0	0	0	0	508	627	0	510	39	9	
15	0	0	0	0	509	627	0	502	39	9	
0	0	0	0	0	509	626	0	496	39	9	
1	0	0	0	0	514	627	0	488	39	9	
2	0	0	0	0	502	625	0	487	39	9	
3	0	0	0	0	508	625	0	483	39	9	
4	0	0	0	0	509	624	0	485	39	9	
5	0	0	0	0	505	624	0	481	39	9	
6	0	0	0	0	504	623	0	482	39	9	
7	0	0	0	0	505	622	0	475	38	9	
8	0	0	0	0	507	622	0	474	39	9	
9	0	0	0	0	510	622	0	467	38	9	
10	0	0	0	0	504	621	0	473	39	9	
11	0	0	0	0	512	621	0	468	39	9	
12	0	0	0	0	509	620	0	487	39	9	
13	0	0	0	0	509	620	0	475	39	9	
14	0	0	0	0	508	620	0	486	39	9	
15	0	0	0	0	509	620	0	478	39	9	
0	0	0	0	0	502	619	0	474	39	9	
1	0	0	0	0	506	618	0	473	38	9	
2	0	0	0	0	502	617	0	473	39	9	
3	0	0	0	0	506	617	0	474	39	9	
4	0	0	0	0	505	616	0	476	39	9	
5	0	0	0	0	504	615	0	476	38	9	
6	0	0	0	0	510	614	0	475	38	9	
7	0	0	0	0	511	614	0	486	39	9	
8	0	0	0	0	504	613	0	507	39	9	
9	0	0	0	0	511	613	0	513	38	9	
10	0	0	0	0	507	612	0	530	38	9	
11	0	0	0	0	514	612	0	537	39	9	
12	0	0	0	0	513	612	0	541	39	9	
13	0	0	0	0	507	611	0	553	39	9	
14	0	0	0	0	510	611	0	551	39	9	
15	0	0	0	0	499	611	0	556	39	9	
0	0	0	0	0	501	610	0	549	39	9	
1	0	0	0	0	508	609	0	542	39	9	
2	0	0	0	0	504	609	0	549	39	9	
3	0	0	0	0	510	608	0	543	38	9	
4	0	0	0	0	507	608	0	537	39	9	
5	0	0	0	0	508	608	0	521	39	9	
6	0	0	0	0	503	606	0	506	39	9	
7	0	0	0	0	510	606	0	494	39	9	
8	0	0	0	0	507	605	0	484	39	9	
9	0	0	0	0	511	605	0	499	38	9	
10	0	0	0	0	505	604	0	512	38	9	
11	0	0	0	0	503	603	0	518	38	9	
12	0	0	0	0	511	604	0	519	39	9	
13	0	0	0	0	511	603	0	511	39	9	
14	0	0	0	0	511	602	0	502	39	9	
15	0	0	0	0	515	602	0	492	39	9	
0	0	0	0	0	504	601	0	485	39	9	
1	0	0	0	0	509	601	0	478	39	9	
2	0	0	0	0	507	600	0	476	39	9	
3	0	0	0	0	503	600	0	473	39	9	
4	0	0	0	0	509	599	0	473	38	9	
5	0	0	0	0	508	599	0	474	38	9	
6	0	0	0	0	510	598	0	474	38	9	
7	0	0	0	0	514	598	0	477	38	9	
8	0	0	0	0	507	597	0	471	38	9	
9	0	0	0	0	505	597	0	473	39	9	
10	0	0	0	0	504	597	0	471	39	9	
11	0	0	0	0	509	596	0	473	38	9	
12	0	0	0	0	504	596	0	474	38	9	
13	0	0	0	0	512	595	0	476	40	9	
14	0	0	0	0	507	595	0	475	39	9	
15	0	0	0	0	509	594	0	475	38	9	
0	0	0	0	0	507	594	0	472	38	9	
1	0	0	0	0	503	594	0	470	39	9	
2	0	0	0	0	503	595	0	470	38	9	
3	0	0	0	0	505	594	0	475	39	9	
4	0	0	0	0	504	594	0	478	38	9	
5	0	0	0	0	516	594	0	480	38	9	
6	0	0	0	0	510	594	0	482	39	9	
7	0	0	0	0	505	593	0	486	39	9	
8	0	0	0	0	511	593	0	501	39	9	
9	0	0	0	0	507	593	0	519	38	9	
10	0	0	0	0	502	593	0	526	38	9	
11	0	0	0	0	508	592	0	549	39	9	
12	0	0	0	0	508	593	0	556	39	9	
13	0	0	0	0	502	591	0	564	38	9	
14	0	0	0	0	508	591	0	569	38	9	
15	0	0	0	0	512	591	0	561	38	9	
0	0	0	0	0	510	591	0	569	39	9	
1	0	0	0	0	497	591	0	568	39	9	
2	0	0	0	0	504	591	0	562	38	9	
3	0	0	0	0	511	591	0	571	39	9	
4	0	0	0	0	512	590	0	563	39	9	
5	0	0	0	0	500	590	0	559	39	9	
6	0	0	0	0	505	589	0	566	39	9	
7	0	0	0	0	516	588	0	565	39	9	
8	0	0	0	0	508	588	0	557	38	9	
9	0	0	0	0	504	587	0	550	39	9	
10	0	0	0	0	507	586	0	536	39	9	
11	0	0	0	0	504	585	0	526	38	9	
12	0	0	0	0	508	584	0	514	38	9	
13	0	0	0	0	507	584	0	509	39	9	
14	0	0	0	0	505	584	0	502	39	9	
15	0	0	0	0	509	583	0	503	38	9	
0	0	0	0	0	512	582	0	495	38	9	
1	0	0	0	0	507	582	0	499	39	9	
2	0	0	0	0	510	582	0	492	39	9	
3	0	0	0	0	512	581	0	493	39	9	
4	0	0	0	0	511	581	0	495	39	9	
5	0	0	0	0	505	580	0	497	39	9	
6	0	0	0	0	495	580	0	495	39	9	
7	0	0	0	0	515	580	0	508	39	9	
8	0	0	0	0	508	579	0	491	39	9	
9	0	0	0	0	501	579	0	489	38	9	
10	0	0	0	0	511	578	0	488	38	9	
11	0	0	0	0	511	578	0	489	38	9	
12	0	0	0	0	500	578	0	491	39	9	
13	0	0	0	0	511	577	0	496	38	9	
14	0	0	0	0	508	577	0	499	38	9	
15	0	0	0	0	509	576	0	499	38	9	
0	0	0	0	0	505	575	0	495	39	9	
1	0	0	0	0	503	575	0	493	39	9	
2	0	0	0	0	508	574	0	494	38	9	
3	0	0	0	0	507	573	0	497	38	9	
4	0	0	0	0	508	572	0	499	38	9	
5	0	0	0	0	504	571	0	518	38	9	
6	0	0	0	0	507	570	0	541	39	9	
7	0	0	0	0	511	569	0	550	38	9	
8	0	0	0	0	508	568	0	568	38	9	
9	0	0	0	0	512	567	0	567	38	9	
10	0	0	0	0	512	566	0	570	39	9	
11	0	0	0	0	501	565	0	579	39	9	
12	0	0	0	0	501	564	0	574	38	9	
13	0	0	0	0	510	563	0	584	38	9	
14	0	0	0	0	509	563	0	580	39	9	
15	0	0	0	0	508	562	0	580	39	9	
0	0	0	0	0	506	561	0	580	39	9	
1	0	0	0	0	507	560	0	568	38	9	
2	0	0	0	0	509	559	0	558	39	9	
3	0	0	0	0	505	558	0	543	39	9	
4	0	0	0	0	513	558	0	529	39	9	
5	0	0	0	0	503	557	0	518	39	9	
6	0	0	0	0	511	556	0	511	39	9	
7	0	0	0	0	510	554	0	506	39	9	
8	0	0	0	0	510	553	0	504	39	9	
9	0	0	0	0	505	552	0	501	39	9	
10	0	0	0	0	509	552	0	500	39	9	
11	0	0	0	0	508	551	0	502	39	9	
12	0	0	0	0	505	550	0	502	39	9	
13	0	0	0	0	508	548	0	503	39	9	
14	0	0	0	0	504	546	0	501	39	9	
15	0	0	0	0	510	545	0	500	39	9	
0	0	0	0	0	508	544	0	499	39	9	
1	0	0	0	0	511	543	0	496	39	9	
2	0	0	0	0	512	542	0	499	38	9	
3	0	0	0	0	502	541	0	498	38	9	
4	0	0	0	0	502	540	0	502	38	9	
5	0	0	0	0	510	538	0	502	38	9	
6	0	0	0	0	513	537	0	505	38	9	
7	0	0	0	0	511	536	0	501	38	9	
8	0	0	0	0	506	534	0	499	39	9	
9	0	0	0	0	502	533	0	495	39	9	
10	0	0	0	0	506	532	0	498	39	9	
11	0	0	0	0	510	531	0	497	38	9	
12	0	0	0	0	506	530	0	501	38	9	
13	0	0	0	0	512	529	0	500	38	9	
14	0	0	0	0	510	527	0	516	38	9	
15	0	0	0	0	506	527	0	537	39	9	
0	0	0	0	0	501	525	0	545	39	9	
1	0	0	0	0	505	523	0	560	38	9	
2	0	0	0	0	511	523	0	583	38	9	
3	0	0	0	0	507	521	0	571	38	9	
4	0	0	0	0	501	520	0	583	39	9	
5	0	0	0	0	511	519	0	577	38	9	
6	0	0	0	0	510	518	0	583	38	9	
7	0	0	0	0	512	517	0	580	38	9	
8	0	0	0	0	506	516	0	575	38	9	
9	0	0	0	0	505	515	0	580	38	9	
10	0	0	0	0	508	515	0	572	38	9	
11	0	0	0	0	510	513	0	565	38	9	
12	0	0	0	0	511	511	0	552	38	9	
13	0	0	0	0	508	510	0	538	38	9	
14	0	0	0	0	502	508	0	526	38	9	
15	0	0	0	0	504	506	0	516	38	9	
0	0	0	0	0	510	504	0	508	38	9	
1	0	0	0	0	505	502	0	501	38	9	
2	0	0	0	0	501	501	0	498	38	9	
3	0	0	0	0	512	499	0	497	38	9	
4	0	0	0	0	513	497	0	496	38	9	
5	0	0	0	0	507	495	0	495	38	9	
6	0	0	0	0	505	493	0	493	39	9	
7	0	0	0	0	511	491	0	491	39	9	
8	0	0	0	0	505	489	0	489	39	9	
9	0	0	0	0	515	487	0	487	39	9	
10	0	0	0	0	515	486	0	487	39	9	
11	0	0	0	0	508	484	0	489	39	9	
12	0	0	0	0	504	483	0	493	39	9	
13	0	0	0	0	505	482	0	496	39	9	
14	0	0	0	0	514	480	0	499	39	9	
15	0	0	0	0	503	479	0	498	39	9	
0	0	0	0	0	508	478	0	496	39	9	
1	0	0	0	0	500	476	0	492	39	9	
2	0	0	0	0	506	474	0	494	39	9	
3	0	0	0	0	515	472	0	496	39	9	
4	0	0	0	0	504	471	0	498	39	9	
5	0	0	0	0	507	469	0	500	39	9	
6	0	0	0	0	508	467	0	501	39	9	
7	0	0	0	0	504	467	0	504	39	9	
8	0	0	0	0	503	465	0	500	39	9	
9	0	0	0	0	506	464	0	498	39	9	
10	0	0	0	0	514	464	0	497	39	9	
11	0	0	0	0	508	463	0	499	39	9	
12	0	0	0	0	505	462	0	503	39	9	
13	0	0	0	0	506	461	0	503	39	9	
14	0	0	0	0	504	460	0	504	39	9	
15	0	0	0	0	506	459	0	500	39	9	
0	0	0	0	0	508	459	0	496	39	9	
1	0	0	0	0	513	459	0	492	39	9	
2	0	0	0	0	510	459	0	493	39	9	
3	0	0	0	0	506	460	0	493	38	9	
4	0	0	0	0	507	460	0	496	38	9	
5	0	0	0	0	507	460	0	494	38	9	
6	0	0	0	0	509	459	0	498	38	9	
7	0	0	0	0	505	458	0	495	38	9	
8	0	0	0	0	500	459	0	491	38	9	
9	0	0	0	0	511	458	0	486	38	9	
10	0	0	0	0	509	458	0	489	38	9	
11	0	0	0	0	511	457	0	488	38	9	
12	0	0	0	0	503	457	0	493	38	9	
13	0	0	0	0	505	457	0	493	38	9	
14	0	0	0	0	504	456	0	495	38	9	
15	0	0	0	0	507	456	0	489	38	9	
0	0	0	0	0	512	456	0	496	39	9	
1	0	0	0	0	506	457	0	519	38	9	
2	0	0	0	0	508	456	0	535	38	9	
3	0	0	0	0	506	456	0	550	38	9	
4	0	0	0	0	510	456	0	568	38	9	
5	0	0	0	0	505	455	0	568	38	9	
6	0	0	0	0	505	455	0	583	38	9	
7	0	0	0	0	516	455	0	576	38	9	
8	0	0	0	0	507	455	0	577	39	9	
9	0	0	0	0	513	456	0	578	38	9	
10	0	0	0	0	505	456	0	574	38	9	
11	0	0	0	0	504	456	0	583	38	9	
12	0	0	0	0	509	456	0	583	38	9	
13	0	0	0	0	508	456	0	582	38	9	
14	0	0	0	0	506	457	0	588	38	9	
15	0	0	0	0	503	458	0	577	38	9	
0	0	0	0	0	501	459	0	585	39	9	
1	0	0	0	0	504	459	0	575	39	9	
2	0	0	0	0	509	459	0	577	39	9	
3	0	0	0	0	514	459	0	575	39	9	
4	0	0	0	0	511	460	0	568	39	9	
5	0	0	0	0	508	460	0	575	39	9	
6	0	0	0	0	505	460	0	571	39	9	
7	0	0	0	0	508	460	0	570	39	9	
8	0	0	0	0	515	461	0	574	39	9	
9	0	0	0	0	509	461	0	563	39	9	
10	0	0	0	0	506	462	0	573	39	9	
11	0	0	0	0	500	462	0	563	39	9	
12	0	0	0	0	508	463	0	559	39	9	
13	0	0	0	0	506	463	0	543	39	9	
14	0	0	0	0	510	463	0	530	39	9	
15	0	0	0	0	502	463	0	515	39	9	
0	0	0	0	0	507	464	0	505	39	9	
1	0	0	0	0	513	465	0	494	39	9	
2	0	0	0	0	504	465	0	488	39	9	
3	0	0	0	0	512	465	0	486	39	9	
4	0	0	0	0	510	465	0	485	39	9	
5	0	0	0	0	510	465	0	486	39	9	
6	0	0	0	0	509	466	0	481	39	9	
7	0	0	0	0	507	467	0	478	39	9	
8	0	0	0	0	509	466	0	475	39	9	
9	0	0	0	0	505	467	0	472	38	9	
10	0	0	0	0	508	467	0	473	38	9	
11	0	0	0	0	506	468	0	475	38	9	
12	0	0	0	0	502	468	0	482	38	9	
13	0	0	0	0	505	469	0	483	38	9	
14	0	0	0	0	510	469	0	489	39	9	
15	0	0	0	0	510	469	0	489	38	9	
0	0	0	0	0	501	470	0	489	38	9	
1	0	0	0	0	505	471	0	485	38	9	
2	0	0	0	0	505	472	0	485	38	9	
3	0	0	0	0	505	472	0	486	38	9	
4	0	0	0	0	508	472	0	488	38	9	
5	0	0	0	0	514	472	0	487	38	9	
6	0	0	0	0	501	472	0	489	38	9	
7	0	0	0	0	510	473	0	487	38	9	
8	0	0	0	0	510	473	0	489	39	9	
9	0	0	0	0	512	473	0	508	38	9	
10	0	0	0	0	500	473	0	539	38	9	
11	0	0	0	0	502	473	0	541	38	9	
12	0	0	0	0	507	474	0	560	38	9	
13	0	0	0	0	512	475	0	561	38	9	
14	0	0	0	0	510	475	0	572	38	9	
15	0	0	0	0	511	475	0	571	38	9	
0	0	0	0	0	509	475	0	568	39	9	
1	0	0	0	0	507	475	0	576	39	9	
2	0	0	0	0	504	476	0	571	38	9	
3	0	0	0	0	512	476	0	576	38	9	
4	0	0	0	0	508	475	0	575	38	9	
5	0	0	0	0	509	476	0	567	39	9	
6	0	0	0	0	502	476	0	562	38	9	
7	0	0	0	0	512	476	0	572	38	9	
8	0	0	0	0	510	477	0	567	39	9	
9	0	0	0	0	506	477	0	558	39	9	
10	0	0	0	0	505	477	0	545	39	9	
11	0	0	0	0	504	477	0	529	39	9	
12	0	0	0	0	505	478	0	515	39	9	
13	0	0	0	0	508	478	0	505	39	9	
14	0	0	0	0	510	478	0	499	39	9	
15	0	0	0	0	507	478	0	494	39	9	
0	0	0	0	0	499	479	0	500	39	9	
1	0	0	0	0	510	479	0	523	39	9	
2	0	0	0	0	507	479	0	536	39	9	
3	0	0	0	0	504	480	0	542	39	9	
4	0	0	0	0	505	480	0	538	39	9	
5	0	0	0	0	510	480	0	528	39	9	
6	0	0	0	0	508	480	0	518	39	9	
7	0	0	0	0	507	481	0	508	39	9	
8	0	0	0	0	510	481	0	498	39	9	
9	0	0	0	0	502	481	0	491	39	9	
10	0	0	0	0	505	482	0	489	39	9	
11	0	0	0	0	507	482	0	488	39	9	
12	0	0	0	0	512	482	0	488	39	9	
13	0	0	0	0	508	482	0	488	39	9	
14	0	0	0	0	508	483	0	487	39	9	
15	0	0	0	0	510	482	0	484	39	9	
0	0	0	0	0	518	483	0	481	39	9	
1	0	0	0	0	507	483	0	478	38	9	
2	0	0	0	0	499	483	0	478	38	9	
3	0	0	0	0	504	484	0	482	39	9	
4	0	0	0	0	509	484	0	483	38	9	
5	0	0	0	0	512	484	0	489	38	9	
6	0	0	0	0	509	484	0	488	38	9	
7	0	0	0	0	512	484	0	487	38	9	
8	0	0	0	0	509	484	0	484	39	9	
9	0	0	0	0	515	484	0	482	38	9	
10	0	0	0	0	503	484	0	482	38	9	
11	0	0	0	0	503	485	0	485	38	9	
12	0	0	0	0	506	486	0	487	38	9	
13	0	0	0	0	507	486	0	489	39	9	
14	0	0	0	0	504	486	0	491	38	9	
15	0	0	0	0	506	486	0	493	39	9	
0	0	0	0	0	506	487	0	514	38	9	
1	0	0	0	0	511	487	0	525	38	9	
2	0	0	0	0	511	487	0	536	38	9	
3	0	0	0	0	503	488	0	559	38	9	
4	0	0	0	0	507	488	0	561	38	9	
5	0	0	0	0	502	488	0	574	38	9	
6	0	0	0	0	506	488	0	573	39	9	
7	0	0	0	0	506	488	0	569	39	9	
8	0	0	0	0	515	488	0	577	39	9	
9	0	0	0	0	510	488	0	569	39	9	
10	0	0	0	0	508	488	0	574	39	9	
11	0	0	0	0	505	488	0	571	39	9	
12	0	0	0	0	509	489	0	564	39	9	
13	0	0	0	0	510	488	0	559	39	9	
14	0	0	0	0	504	488	0	569	39	9	
15	0	0	0	0	508	488	0	566	39	9	
0	0	0	0	0	505	488	0	560	39	9	
1	0	0	0	0	509	489	0	550	39	9	
2	0	0	0	0	508	489	0	536	39	9	
3	0	0	0	0	503	489	0	525	39	9	
4	0	0	0	0	510	489	0	515	39	9	
5	0	0	0	0	504	490	0	512	39	9	
6	0	0	0	0	506	490	0	506	39	9	
7	0	0	0	0	511	490	0	507	39	9	
8	0	0	0	0	503	490	0	498	39	9	
9	0	0	0	0	507	491	0	496	39	9	
10	0	0	0	0	510	490	0	491	39	9	
11	0	0	0	0	508	490	0	494	39	9	
12	0	0	0	0	509	490	0	493	39	9	
13	0	0	0	0	508	491	0	497	39	9	
14	0	0	0	0	510	491	0	496	39	9	
15	0	0	0	0	505	491	0	494	39	9	
0	0	0	0	0	508	492	0	491	39	9	
1	0	0	0	0	511	492	0	489	39	9	
2	0	0	0	0	508	492	0	490	39	9	
3	0	0	0	0	507	492	0	493	39	9	
4	0	0	0	0	508	493	0	495	39	9	
5	0	0	0	0	506	493	0	497	39	9	
6	0	0	0	0	508	492	0	499	39	9	
7	0	0	0	0	501	493	0	499	39	9	
8	0	0	0	0	515	493	0	496	39	9	
9	0	0	0	0	507	493	0	495	39	9	
10	0	0	0	0	509	494	0	496	39	9	
11	0	0	0	0	507	494	0	499	38	9	
12	0	0	0	0	505	493	0	499	39	9	
13	0	0	0	0	506	494	0	502	39	9	
14	0	0	0	0	505	494	0	502	38	9	
15	0	0	0	0	508	494	0	515	38	9	
0	0	0	0	0	514	494	0	538	38	9	
1	0	0	0	0	516	494	0	547	38	9	
2	0	0	0	0	511	495	0	567	38	9	
3	0	0	0	0	498	495	0	576	38	9	
4	0	0	0	0	508	495	0	579	38	9	
5	0	0	0	0	509	495	0	593	38	9	
6	0	0	0	0	505	495	0	589	38	9	
7	0	0	0	0	506	495	0	594	38	9	
8	0	0	0	0	504	495	0	587	38	9	
9	0	0	0	0	507	495	0	578	38	9	
10	0	0	0	0	509	495	0	584	38	9	
11	0	0	0	0	505	496	0	578	38	9	
12	0	0	0	0	510	496	0	573	38	9	
13	0	0	0	0	506	497	0	559	38	9	
14	0	0	0	0	496	496	0	543	38	9	
15	0	0	0	0	505	496	0	532	38	9	
0	0	0	0	0	510	497	0	521	38	9	
1	0	0	0	0	509	497	0	512	38	9	
2	0	0	0	0	512	497	0	506	39	9	
3	0	0	0	0	508	497	0	503	39	9	
4	0	0	0	0	508	497	0	501	39	9	
5	0	0	0	0	508	497	0	500	39	9	
6	0	0	0	0	506	497	0	500	38	9	
7	0	0	0	0	500	497	0	496	39	9	
8	0	0	0	0	508	498	0	494	39	9	
9	0	0	0	0	512	497	0	489	38	9	
10	0	0	0	0	502	498	0	492	38	9	
11	0	0	0	0	515	497	0	491	39	9	
12	0	0	0	0	504	498	0	494	39	9	
13	0	0	0	0	510	498	0	493	39	9	
14	0	0	0	0	504	498	0	498	39	9	
15	0	0	0	0	508	499	0	496	39	9	
0	0	0	0	0	511	499	0	496	39	9	
1	0	0	0	0	511	499	0	494	39	9	
2	0	0	0	0	504	499	0	497	39	9	
3	0	0	0	0	512	499	0	498	39	9	
4	0	0	0	0	511	499	0	505	39	9	
5	0	0	0	0	508	499	0	501	39	9	
6	0	0	0	0	508	499	0	513	39	9	
7	0	0	0	0	505	499	0	499	39	9	
8	0	0	0	0	505	499	0	502	39	9	
9	0	0	0	0	516	499	0	525	39	9	
10	0	0	0	0	502	499	0	540	39	9	
11	0	0	0	0	508	499	0	555	39	9	
12	0	0	0	0	507	500	0	570	39	9	
13	0	0	0	0	505	500	0	571	39	9	
14	0	0	0	0	507	500	0	584	39	9	
15	0	0	0	0	510	500	0	578	39	9	
0	0	0	0	0	511	500	0	578	39	9	
1	0	0	0	0	510	500	0	578	39	9	
2	0	0	0	0	510	499	0	570	39	9	
3	0	0	0	0	510	500	0	579	39	9	
4	0	0	0	0	504	500	0	575	39	9	
5	0	0	0	0	504	500	0	568	39	9	
6	0	0	0	0	512	499	0	567	39	9	
7	0	0	0	0	506	499	0	574	39	9	
8	0	0	0	0	509	499	0	567	39	9	
9	0	0	0	0	507	500	0	558	39	9	
10	0	0	0	0	507	500	0	544	38	9	
11	0	0	0	0	508	500	0	530	38	9	
12	0	0	0	0	505	500	0	518	38	9	
13	0	0	0	0	507	501	0	510	39	9	
14	0	0	0	0	499	501	0	503	38	9	
15	0	0	0	0	512	502	0	497	38	9	
0	0	0	0	0	504	501	0	493	38	9	
1	0	0	0	0	512	502	0	488	38	9	
2	0	0	0	0	511	502	0	487	38	9	
3	0	0	0	0	505	502	0	487	38	9	
4	0	0	0	0	502	502	0	488	38	9	
5	0	0	0	0	507	502	0	487	38	9	
6	0	0	0	0	507	501	0	490	38	9	
7	0	0	0	0	508	501	0	489	38	9	
8	0	0	0	0	511	501	0	487	39	9	
9	0	0	0	0	509	501	0	484	39	9	
10	0	0	0	0	512	502	0	485	39	9	
11	0	0	0	0	507	501	0	487	39	9	
12	0	0	0	0	501	501	0	488	39	9	
13	0	0	0	0	501	501	0	488	39	9	
14	0	0	0	0	506	501	0	488	39	9	
15	0	0	0	0	512	501	0	487	39	9	
0	0	0	0	0	510	501	0	486	39	9	
1	0	0	0	0	512	501	0	480	39	9	
2	0	0	0	0	512	501	0	480	39	9	
3	0	0	0	0	506	501	0	480	39	9	
4	0	0	0	0	510	502	0	483	39	9	
5	0	0	0	0	499	501	0	490	39	9	
6	0	0	0	0	510	502	0	518	39	9	
7	0	0	0	0	501	502	0	526	39	9	
8	0	0	0	0	511	501	0	540	39	9	
9	0	0	0	0	512	502	0	552	39	9	
10	0	0	0	0	513	501	0	553	39	9	
11	0	0	0	0	504	502	0	566	39	9	
12	0	0	0	0	510	502	0	560	39	9	
13	0	0	0	0	511	502	0	563	39	9	
14	0	0	0	0	508	502	0	567	39	9	
15	0	0	0	0	508	502	0	561	39	9	
0	0	0	0	0	513	503	0	568	39	9	
1	0	0	0	0	509	503	0	564	39	9	
2	0	0	0	0	504	502	0	556	39	9	
3	0	0	0	0	504	502	0	544	39	9	
4	0	0	0	0	506	502	0	527	39	9	
5	0	0	0	0	511	503	0	514	39	9	
6	0	0	0	0	515	503	0	504	38	9	
7	0	0	0	0	505	503	0	496	39	9	
8	0	0	0	0	505	503	0	488	39	9	
9	0	0	0	0	508	502	0	496	39	9	
10	0	0	0	0	502	502	0	479	39	9	
11	0	0	0	0	504	502	0	480	39	9	
12	0	0	0	0	504	502	0	477	38	9	
13	0	0	0	0	508	502	0	477	39	9	
14	0	0	0	0	506	502	0	478	38	9	
15	0	0	0	0	512	502	0	478	39	9	
0	0	0	0	0	507	502	0	476	38	9	
1	0	0	0	0	513	502	0	474	39	9	
2	0	0	0	0	506	502	0	473	39	9	
3	0	0	0	0	502	502	0	476	38	9	
4	0	0	0	0	508	502	0	478	39	9	
5	0	0	0	0	516	503	0	485	38	9	
6	0	0	0	0	510	502	0	477	38	9	
7	0	0	0	0	509	502	0	492	39	9	
8	0	0	0	0	506	503	0	475	38	9	
9	0	0	0	0	504	503	0	478	38	9	
10	0	0	0	0	505	503	0	472	38	9	
11	0	0	0	0	504	503	0	474	38	9	
12	0	0	0	0	497	504	0	475	38	9	
13	0	0	0	0	507	503	0	477	39	9	
14	0	0	0	0	506	503	0	480	38	9	
15	0	0	0	0	506	504	0	477	38	9	
0	0	0	0	0	510	504	0	472	38	9	
1	0	0	0	0	511	503	0	471	38	9	
2	0	0	0	0	508	503	0	470	38	9	
3	0	0	0	0	505	503	0	472	38	9	
4	0	0	0	0	506	503	0	472	38	9	
5	0	0	0	0	507	503	0	473	39	9	
6	0	0	0	0	512	503	0	473	39	9	
7	0	0	0	0	499	503	0	473	39	9	
8	0	0	0	0	510	503	0	471	39	9	
9	0	0	0	0	511	503	0	469	39	9	
10	0	0	0	0	513	504	0	469	39	9	
11	0	0	0	0	500	504	0	472	39	9	
12	0	0	0	0	503	504	0	476	39	9	
13	0	0	0	0	507	504	0	481	39	9	
14	0	0	0	0	515	504	0	505	39	9	
15	0	0	0	0	514	504	0	518	39	9	
0	0	0	0	0	506	504	0	527	39	9	
1	0	0	0	0	502	504	0	549	39	9	
2	0	0	0	0	508	504	0	551	39	9	
3	0	0	0	0	505	505	0	565	39	9	
4	0	0	0	0	503	505	0	563	39	9	
5	0	0	0	0	500	505	0	568	39	9	
6	0	0	0	0	505	505	0	571	39	9	
7	0	0	0	0	512	506	0	565	39	9	
8	0	0	0	0	517	505	0	566	39	9	
9	0	0	0	0	514	505	0	575	39	9	
10	0	0	0	0	505	505	0	563	39	9	
11	0	0	0	0	510	504	0	573	39	9	
12	0	0	0	0	505	504	0	563	39	9	
13	0	0	0	0	504	505	0	569	39	9	
14	0	0	0	0	512	504	0	568	39	9	
15	0	0	0	0	506	504	0	563	39	9	
0	0	0	0	0	512	504	0	569	39	9	
1	0	0	0	0	508	505	0	560	39	9	
2	0	0	0	0	506	504	0	553	39	9	
3	0	0	0	0	502	504	0	539	39	9	
4	0	0	0	0	508	504	0	524	39	9	
5	0	0	0	0	511	504	0	511	39	9	
6	0	0	0	0	506	504	0	502	38	9	
7	0	0	0	0	511	504	0	497	39	9	
8	0	0	0	0	508	503	0	495	39	9	
9	0	0	0	0	506	504	0	492	39	9	
10	0	0	0	0	510	503	0	491	38	9	
11	0	0	0	0	509	504	0	492	38	9	
12	0	0	0	0	503	503	0	491	38	9	
13	0	0	0	0	509	504	0	492	38	9	
14	0	0	0	0	505	504	0	490	39	9	
15	0	0	0	0	501	504	0	491	38	9	
0	0	0	0	0	509	504	0	487	39	9	
1	0	0	0	0	509	505	0	485	38	9	
2	0	0	0	0	509	504	0	484	38	9	
3	0	0	0	0	509	504	0	489	38	9	
4	0	0	0	0	505	504	0	488	38	9	
5	0	0	0	0	508	503	0	492	38	9	
6	0	0	0	0	508	503	0	492	38	9	
7	0	0	0	0	505	503	0	508	38	9	
8	0	0	0	0	503	504	0	489	39	9	
9	0	0	0	0	507	504	0	486	38	9	
10	0	0	0	0	512	504	0	487	38	9	
11	0	0	0	0	512	504	0	489	38	9	
12	0	0	0	0	508	503	0	489	39	9	
13	0	0	0	0	511	503	0	493	39	9	
14	0	0	0	0	509	503	0	496	39	9	
15	0	0	0	0	507	503	0	497	39	9	
0	0	0	0	0	507	504	0	496	39	9	
1	0	0	0	0	509	504	0	512	39	9	
2	0	0	0	0	503	504	0	536	39	9	
3	0	0	0	0	505	504	0	544	39	9	
4	0	0	0	0	507	504	0	569	39	9	
5	0	0	0	0	504	505	0	572	39	9	
6	0	0	0	0	508	505	0	580	39	9	
7	0	0	0	0	509	505	0	583	39	9	
8	0	0	0	0	510	505	0	577	39	9	
9	0	0	0	0	508	505	0	584	39	9	
10	0	0	0	0	515	506	0	589	39	9	
11	0	0	0	0	513	505	0	584	39	9	
12	0	0	0	0	511	505	0	587	39	9	
13	0	0	0	0	501	505	0	578	39	9	
14	0	0	0	0	507	505	0	586	39	9	
15	0	0	0	0	505	505	0	577	39	9	
0	0	0	0	0	510	505	0	569	39	9	
1	0	0	0	0	509	504	0	556	39	9	
2	0	0	0	0	502	504	0	540	39	9	
3	0	0	0	0	512	504	0	527	39	9	
4	0	0	0	0	513	504	0	519	39	9	
5	0	0	0	0	504	504	0	512	39	9	
6	0	0	0	0	512	504	0	508	39	9	
7	0	0	0	0	508	504	0	508	39	9	
8	0	0	0	0	508	504	0	504	39	9	
9	0	0	0	0	508	504	0	500	39	9	
10	0	0	0	0	502	504	0	498	39	9	
11	0	0	0	0	503	504	0	499	39	9	
12	0	0	0	0	509	504	0	501	39	9	
13	0	0	0	0	505	504	0	501	38	9	
14	0	0	0	0	508	504	0	503	39	9	
15	0	0	0	0	510	504	0	499	38	9	
0	0	0	0	0	509	504	0	497	39	9	
1	0	0	0	0	507	503	0	495	39	9	
2	0	0	0	0	507	503	0	497	39	9	
3	0	0	0	0	510	503	0	499	39	9	
4	0	0	0	0	507	503	0	501	38	9	
5	0	0	0	0	508	504	0	503	38	9	
6	0	0	0	0	508	504	0	505	38	9	
7	0	0	0	0	507	504	0	504	38	9	
8	0	0	0	0	507	504	0	500	39	9	
9	0	0	0	0	510	504	0	498	38	9	
10	0	0	0	0	510	504	0	497	38	9	
11	0	0	0	0	512	504	0	499	38	9	
12	0	0	0	0	509	505	0	501	38	9	
13	0	0	0	0	512	506	0	499	38	9	
14	0	0	0	0	505	506	0	498	38	9	
15	0	0	0	0	504	507	0	508	38	9	
0	0	0	0	0	505	508	0	531	38	9	
1	0	0	0	0	511	509	0	539	38	9	
2	0	0	0	0	507	510	0	559	38	9	
3	0	0	0	0	501	510	0	566	38	9	
4	0	0	0	0	501	512	0	570	39	9	
5	0	0	0	0	512	513	0	584	39	9	
6	0	0	0	0	508	514	0	581	39	9	
7	0	0	0	0	503	515	0	587	38	9	
8	0	0	0	0	504	516	0	580	38	9	
9	0	0	0	0	510	517	0	571	38	9	
10	0	0	0	0	505	518	0	577	39	9	
11	0	0	0	0	506	519	0	569	39	9	
12	0	0	0	0	511	520	0	564	39	9	
13	0	0	0	0	517	520	0	547	39	9	
14	0	0	0	0	504	521	0	531	39	9	
15	0	0	0	0	513	522	0	519	39	9	
0	0	0	0	0	507	523	0	509	39	9	
1	0	0	0	0	509	523	0	500	39	9	
2	0	0	0	0	501	523	0	494	39	9	
3	0	0	0	0	510	524	0	491	39	9	
4	0	0	0	0	504	524	0	488	39	9	
5	0	0	0	0	506	525	0	488	39	9	
6	0	0	0	0	512	525	0	488	39	9	
7	0	0	0	0	515	525	0	486	39	9	
8	0	0	0	0	510	526	0	481	39	9	
9	0	0	0	0	504	526	0	478	39	9	
10	0	0	0	0	510	527	0	479	39	9	
11	0	0	0	0	507	527	0	481	39	9	
12	0	0	0	0	501	527	0	482	39	9	
13	0	0	0	0	504	527	0	483	39	9	
14	0	0	0	0	506	527	0	486	39	9	
15	0	0	0	0	514	527	0	488	39	9	
0	0	0	0	0	507	527	0	483	39	9	
1	0	0	0	0	511	526	0	482	39	9	
2	0	0	0	0	510	527	0	482	39	9	
3	0	0	0	0	503	527	0	482	39	9	
4	0	0	0	0	510	526	0	482	39	9	
5	0	0	0	0	502	526	0	483	39	9	
6	0	0	0	0	505	526	0	480	39	9	
7	0	0	0	0	506	525	0	480	39	9	
8	0	0	0	0	508	525	0	475	39	9	
9	0	0	0	0	506	525	0	477	39	9	
10	0	0	0	0	509	525	0	473	38	9	
11	0	0	0	0	500	524	0	475	39	9	
12	0	0	0	0	515	524	0	478	39	9	
13	0	0	0	0	512	524	0	483	39	9	
14	0	0	0	0	505	524	0	485	38	9	
15	0	0	0	0	509	523	0	487	39	9	
0	0	0	0	0	509	522	0	484	39	9	
1	0	0	0	0	506	521	0	482	38	9	
2	0	0	0	0	507	520	0	483	38	9	
3	0	0	0	0	506	519	0	485	38	9	
4	0	0	0	0	513	519	0	487	38	9	
5	0	0	0	0	504	519	0	488	38	9	
6	0	0	0	0	512	518	0	487	38	9	
7	0	0	0	0	511	516	0	487	38	9	
8	0	0	0	0	501	516	0	485	38	9	
9	0	0	0	0	512	515	0	507	38	9	
10	0	0	0	0	510	515	0	523	38	9	
11	0	0	0	0	504	514	0	536	38	9	
12	0	0	0	0	505	514	0	556	38	9	
13	0	0	0	0	512	513	0	558	38	9	
14	0	0	0	0	505	512	0	569	38	9	
15	0	0	0	0	508	510	0	569	39	9	
0	0	0	0	0	507	509	0	564	39	9	
1	0	0	0	0	499	508	0	568	39	9	
2	0	0	0	0	507	507	0	558	39	9	
3	0	0	0	0	510	506	0	564	38	9	
4	0	0	0	0	514	504	0	564	39	9	
5	0	0	0	0	507	503	0	563	39	9	
6	0	0	0	0	510	502	0	572	39	9	
7	0	0	0	0	504	500	0	581	39	9	
8	0	0	0	0	504	499	0	568	39	9	
9	0	0	0	0	511	497	0	565	39	9	
10	0	0	0	0	506	496	0	561	39	9	
11	0	0	0	0	507	496	0	570	39	9	
12	0	0	0	0	506	495	0	563	39	9	
13	0	0	0	0	509	494	0	556	39	9	
14	0	0	0	0	511	494	0	559	39	9	
15	0	0	0	0	504	493	0	564	39	9	
0	0	0	0	0	515	493	0	558	39	9	
1	0	0	0	0	500	493	0	548	39	9	
2	0	0	0	0	506	493	0	534	39	9	
3	0	0	0	0	507	494	0	519	39	9	
4	0	0	0	0	507	493	0	506	39	9	
5	0	0	0	0	501	492	0	505	39	9	
6	0	0	0	0	509	493	0	493	39	9	
7	0	0	0	0	511	493	0	489	39	9	
8	0	0	0	0	505	493	0	482	39	9	
9	0	0	0	0	504	493	0	478	39	9	
10	0	0	0	0	511	493	0	478	38	9	
11	0	0	0	0	505	494	0	476	39	9	
12	0	0	0	0	508	494	0	480	39	9	
13	0	0	0	0	513	494	0	476	38	9	
14	0	0	0	0	505	495	0	478	39	9	
15	0	0	0	0	508	495	0	476	38	9	
0	0	0	0	0	504	495	0	473	39	9	
1	0	0	0	0	510	495	0	471	38	9	
2	0	0	0	0	504	495	0	469	38	9	
3	0	0	0	0	508	495	0	472	38	9	
4	0	0	0	0	505	495	0	474	38	9	
5	0	0	0	0	511	495	0	478	38	9	
6	0	0	0	0	505	496	0	480	38	9	
7	0	0	0	0	502	496	0	478	38	9	
8	0	0	0	0	511	496	0	478	39	9	
9	0	0	0	0	516	496	0	474	38	9	
10	0	0	0	0	512	495	0	475	38	9	
11	0	0	0	0	502	496	0	477	38	9	
12	0	0	0	0	508	496	0	479	38	9	
13	0	0	0	0	505	496	0	491	39	9	
14	0	0	0	0	501	496	0	518	39	9	
15	0	0	0	0	510	496	0	525	39	9	
0	0	0	0	0	508	497	0	541	39	9	
1	0	0	0	0	512	497	0	550	38	9	
2	0	0	0	0	498	497	0	553	38	9	
3	0	0	0	0	505	497	0	566	38	9	
4	0	0	0	0	508	498	0	564	39	9	
5	0	0	0	0	512	498	0	570	39	9	
6	0	0	0	0	508	498	0	573	39	9	
7	0	0	0	0	514	497	0	572	39	9	
8	0	0	0	0	511	497	0	577	39	9	
9	0	0	0	0	504	497	0	564	39	9	
10	0	0	0	0	504	497	0	556	39	9	
11	0	0	0	0	508	497	0	543	39	9	
12	0	0	0	0	510	497	0	525	39	9	
13	0	0	0	0	504	497	0	513	39	9	
14	0	0	0	0	504	497	0	505	39	9	
15	0	0	0	0	510	497	0	500	39	9	
0	0	0	0	0	510	497	0	500	39	9	
1	0	0	0	0	509	499	0	492	39	9	
2	0	0	0	0	509	499	0	491	39	9	
3	0	0	0	0	504	499	0	489	39	9	
4	0	0	0	0	510	499	0	489	39	9	
5	0	0	0	0	499	499	0	491	39	9	
6	0	0	0	0	513	499	0	488	39	9	
7	0	0	0	0	508	499	0	487	39	9	
8	0	0	0	0	510	499	0	481	39	9	
9	0	0	0	0	506	499	0	477	39	9	
10	0	0	0	0	502	499	0	478	39	9	
11	0	0	0	0	507	499	0	477	39	9	
12	0	0	0	0	506	499	0	479	39	9	
13	0	0	0	0	506	498	0	480	39	9	
14	0	0	0	0	510	498	0	483	39	9	
15	0	0	0	0	509	498	0	483	39	9	
0	0	0	0	0	513	498	0	479	39	9	
1	0	0	0	0	503	497	0	476	39	9	
2	0	0	0	0	507	498	0	476	39	9	
3	0	0	0	0	505	498	0	480	39	9	
4	0	0	0	0	504	498	0	483	39	9	
5	0	0	0	0	510	499	0	484	39	9	
6	0	0	0	0	510	499	0	489	38	9	
7	0	0	0	0	504	499	0	487	38	9	
8	0	0	0	0	511	498	0	487	39	9	
9	0	0	0	0	508	498	0	502	38	9	
10	0	0	0	0	508	498	0	525	39	9	
11	0	0	0	0	506	499	0	533	39	9	
12	0	0	0	0	505	498	0	555	38	9	
13	0	0	0	0	505	496	0	563	38	9	
14	0	0	0	0	504	495	0	567	38	9	
15	0	0	0	0	509	492	0	570	38	9	
0	0	0	0	0	512	490	0	561	39	9	
1	0	0	0	0	503	487	0	571	38	9	
2	0	0	0	0	504	483	0	567	38	9	
3	0	0	0	0	508	480	0	569	39	9	
4	0	0	0	0	511	476	0	572	39	9	
5	0	0	0	0	501	473	0	567	38	9	
6	0	0	0	0	507	470	0	572	38	9	
7	0	0	0	0	516	467	0	567	39	9	
8	0	0	0	0	508	468	0	554	39	9	
9	0	0	0	0	504	472	0	542	39	9	
10	0	0	0	0	507	476	0	529	38	9	
11	0	0	0	0	502	483	0	515	38	9	
12	0	0	0	0	505	491	0	506	38	9	
13	0	0	0	0	512	499	0	498	38	9	
14	0	0	0	0	504	509	0	495	39	9	
15	0	0	0	0	503	519	0	496	38	9	
0	0	0	0	0	514	529	0	489	39	9	
1	0	0	0	0	509	540	0	486	38	9	
2	0	0	0	0	513	551	0	483	38	9	
3	0	0	0	0	513	561	0	486	39	9	
4	0	0	0	0	509	571	0	488	39	9	
5	0	0	0	0	505	582	0	488	39	9	
6	0	0	0	0	506	592	0	491	39	9	
7	0	0	0	0	510	602	0	488	39	9	
8	0	0	0	0	508	612	0	487	39	9	
9	0	0	0	0	498	623	0	484	39	9	
10	0	0	0	0	509	633	0	484	39	9	
11	0	0	0	0	504	643	0	485	39	9	
12	0	0	0	0	507	652	0	486	39	9	
13	0	0	0	0	507	663	0	490	39	9	
14	0	0	0	0	511	671	0	491	39	9	
15	0	0	0	0	505	681	0	492	39	9	
0	0	0	0	0	508	688	0	495	39	9	
1	0	0	0	0	515	693	0	487	39	9	
2	0	0	0	0	512	696	0	487	39	9	
3	0	0	0	0	510	698	0	490	39	9	
4	0	0	0	0	506	696	0	492	39	9	
5	0	0	0	0	510	691	0	495	39	9	
6	0	0	0	0	501	682	0	494	39	9	
7	0	0	0	0	508	672	0	499	39	9	
8	0	0	0	0	511	661	0	490	39	9	
9	0	0	0	0	512	648	0	489	39	9	
10	0	0	0	0	502	636	0	491	39	9	
11	0	0	0	0	504	622	0	511	39	9	
12	0	0	0	0	512	608	0	539	39	9	
13	0	0	0	0	510	593	0	550	39	9	
14	0	0	0	0	502	579	0	570	39	9	
15	0	0	0	0	501	565	0	568	39	9	
0	0	0	0	0	505	550	0	572	39	9	
1	0	0	0	0	511	536	0	576	39	9	
2	0	0	0	0	509	523	0	572	38	9	
3	0	0	0	0	509	509	0	582	38	9	
4	0	0	0	0	510	495	0	574	38	9	
5	0	0	0	0	508	481	0	579	39	9	
6	0	0	0	0	509	467	0	579	39	9	
7	0	0	0	0	505	454	0	571	39	9	
8	0	0	0	0	507	441	0	575	39	9	
9	0	0	0	0	508	428	0	567	39	9	
10	0	0	0	0	504	415	0	567	38	9	
11	0	0	0	0	515	403	0	571	38	9	
12	0	0	0	0	512	394	0	566	38	9	
13	0	0	0	0	504	391	0	559	38	9	
14	0	0	0	0	508	390	0	565	39	9	
15	0	0	0	0	508	391	0	563	39	9	
0	0	0	0	0	506	396	0	553	39	9	
1	0	0	0	0	504	401	0	542	39	9	
2	0	0	0	0	508	407	0	527	38	9	
3	0	0	0	0	508	413	0	514	39	9	
4	0	0	0	0	509	420	0	500	38	9	
5	0	0	0	0	506	427	0	494	39	9	
6	0	0	0	0	505	435	0	497	38	9	
7	0	0	0	0	506	443	0	488	39	9	
8	0	0	0	0	511	449	0	486	39	9	
9	0	0	0	0	510	454	0	483	38	9	
10	0	0	0	0	504	457	0	481	38	9	
11	0	0	0	0	504	460	0	484	39	9	
12	0	0	0	0	506	463	0	483	39	9	
13	0	0	0	0	510	464	0	483	38	9	
14	0	0	0	0	507	466	0	481	38	9	
15	0	0	0	0	515	467	0	480	38	9	
0	0	0	0	0	511	468	0	476	39	9	
1	0	0	0	0	507	470	0	474	39	9	
2	0	0	0	0	509	471	0	490	39	9	
3	0	0	0	0	509	472	0	475	39	9	
4	0	0	0	0	501	472	0	477	39	9	
5	0	0	0	0	508	472	0	479	39	9	
6	0	0	0	0	513	473	0	481	38	9	
7	0	0	0	0	501	474	0	484	39	9	
8	0	0	0	0	504	474	0	480	39	9	
9	0	0	0	0	506	476	0	478	39	9	
10	0	0	0	0	509	476	0	477	39	9	
11	0	0	0	0	511	476	0	478	39	9	
12	0	0	0	0	511	477	0	479	39	9	
13	0	0	0	0	513	477	0	477	39	9	
14	0	0	0	0	502	478	0	477	39	9	
15	0	0	0	0	504	479	0	476	39	9	
0	0	0	0	0	503	479	0	476	39	9	
1	0	0	0	0	509	480	0	499	39	9	
2	0	0	0	0	502	480	0	517	39	9	
3	0	0	0	0	512	480	0	535	39	9	
4	0	0	0	0	510	481	0	549	39	9	
5	0	0	0	0	510	481	0	548	39	9	
6	0	0	0	0	505	481	0	558	39	9	
7	0	0	0	0	508	481	0	556	38	9	
8	0	0	0	0	507	482	0	552	39	9	
9	0	0	0	0	507	483	0	560	39	9	
10	0	0	0	0	506	483	0	557	38	9	
11	0	0	0	0	513	483	0	563	38	9	
12	0	0	0	0	516	483	0	563	39	9	
13	0	0	0	0	511	484	0	556	39	9	
14	0	0	0	0	501	485	0	551	39	9	
15	0	0	0	0	511	486	0	561	38	9	
0	0	0	0	0	504	486	0	551	39	9	
1	0	0	0	0	507	486	0	543	39	9	
2	0	0	0	0	507	487	0	531	39	9	
3	0	0	0	0	503	487	0	518	39	9	
4	0	0	0	0	507	487	0	508	38	9	
5	0	0	0	0	508	487	0	499	39	9	
6	0	0	0	0	511	488	0	491	38	9	
7	0	0	0	0	512	488	0	485	38	9	
8	0	0	0	0	508	488	0	482	39	9	
9	0	0	0	0	512	488	0	478	38	9	
10	0	0	0	0	503	488	0	473	39	9	
11	0	0	0	0	511	489	0	472	38	9	
12	0	0	0	0	503	490	0	471	39	9	
13	0	0	0	0	504	491	0	472	39	9	
14	0	0	0	0	511	491	0	475	39	9	
15	0	0	0	0	508	492	0	470	38	9	
0	0	0	0	0	504	492	0	465	39	9	
1	0	0	0	0	507	493	0	463	39	9	
2	0	0	0	0	506	493	0	463	38	9	
3	0	0	0	0	510	494	0	467	39	9	
4	0	0	0	0	503	495	0	469	39	9	
5	0	0	0	0	511	496	0	471	39	9	
6	0	0	0	0	511	496	0	472	39	9	
7	0	0	0	0	509	497	0	474	39	9	
8	0	0	0	0	501	497	0	472	39	9	
9	0	0	0	0	512	498	0	467	39	9	
10	0	0	0	0	507	498	0	465	39	9	
11	0	0	0	0	510	499	0	468	39	9	
12	0	0	0	0	506	499	0	469	39	9	
13	0	0	0	0	508	499	0	474	39	9	
14	0	0	0	0	504	499	0	499	39	9	
15	0	0	0	0	505	499	0	519	39	9	
0	0	0	0	0	505	499	0	529	39	9	
1	0	0	0	0	506	500	0	547	39	9	
2	0	0	0	0	515	500	0	545	39	9	
3	0	0	0	0	507	501	0	556	39	9	
4	0	0	0	0	503	502	0	560	39	9	
5	0	0	0	0	508	502	0	557	39	9	
6	0	0	0	0	507	502	0	567	38	9	
7	0	0	0	0	510	503	0	555	38	9	
8	0	0	0	0	508	503	0	558	39	9	
9	0	0	0	0	506	504	0	556	39	9	
10	0	0	0	0	510	505	0	547	39	9	
11	0	0	0	0	507	504	0	538	39	9	
12	0	0	0	0	507	505	0	521	38	9	
13	0	0	0	0	504	505	0	507	38	9	
14	0	0	0	0	511	505	0	497	38	9	
15	0	0	0	0	508	506	0	489	39	9	
0	0	0	0	0	508	506	0	491	39	9	
1	0	0	0	0	506	506	0	514	39	9	
2	0	0	0	0	510	506	0	524	39	9	
3	0	0	0	0	504	507	0	529	39	9	
4	0	0	0	0	502	507	0	527	38	9	
5	0	0	0	0	512	508	0	521	39	9	
6	0	0	0	0	507	508	0	510	39	9	
7	0	0	0	0	506	508	0	501	39	9	
8	0	0	0	0	509	508	0	491	39	9	
9	0	0	0	0	500	508	0	483	39	9	
10	0	0	0	0	507	508	0	481	39	9	
11	0	0	0	0	508	508	0	480	39	9	
12	0	0	0	0	508	509	0	488	38	9	
13	0	0	0	0	515	509	0	476	38	9	
14	0	0	0	0	508	508	0	476	39	9	
15	0	0	0	0	509	509	0	475	38	9	
0	0	0	0	0	515	509	0	473	38	9	
1	0	0	0	0	504	510	0	485	38	9	
2	0	0	0	0	505	511	0	469	38	9	
3	0	0	0	0	516	512	0	471	39	9	
4	0	0	0	0	506	511	0	473	39	9	
5	0	0	0	0	507	512	0	476	39	9	
6	0	0	0	0	507	513	0	478	38	9	
7	0	0	0	0	506	513	0	476	38	9	
8	0	0	0	0	504	513	0	473	39	9	
9	0	0	0	0	509	513	0	470	38	9	
10	0	0	0	0	505	513	0	472	38	9	
11	0	0	0	0	506	514	0	475	38	9	
12	0	0	0	0	510	514	0	477	39	9	
13	0	0	0	0	508	514	0	479	39	9	
14	0	0	0	0	508	515	0	480	39	9	
15	0	0	0	0	508	515	0	482	39	9	
0	0	0	0	0	508	515	0	502	39	9	
1	0	0	0	0	509	515	0	515	39	9	
2	0	0	0	0	511	515	0	528	39	9	
3	0	0	0	0	506	515	0	547	39	9	
4	0	0	0	0	510	515	0	551	39	9	
5	0	0	0	0	507	516	0	563	39	9	
6	0	0	0	0	504	516	0	565	39	9	
7	0	0	0	0	510	517	0	566	39	9	
8	0	0	0	0	515	517	0	572	39	9	
9	0	0	0	0	510	517	0	564	39	9	
10	0	0	0	0	504	517	0	568	39	9	
11	0	0	0	0	513	517	0	567	39	9	
12	0	0	0	0	507	518	0	562	39	9	
13	0	0	0	0	507	517	0	556	39	9	
14	0	0	0	0	502	517	0	579	39	9	
15	0	0	0	0	511	518	0	562	39	9	
0	0	0	0	0	506	517	0	561	39	9	
1	0	0	0	0	506	517	0	561	39	9	
2	0	0	0	0	501	517	0	553	39	9	
3	0	0	0	0	510	517	0	547	39	9	
4	0	0	0	0	513	518	0	532	39	9	
5	0	0	0	0	512	518	0	519	39	9	
6	0	0	0	0	505	519	0	508	39	9	
7	0	0	0	0	502	519	0	501	39	9	
8	0	0	0	0	512	519	0	496	39	9	
9	0	0	0	0	512	520	0	488	39	9	
10	0	0	0	0	508	520	0	484	39	9	
11	0	0	0	0	512	521	0	483	39	9	
12	0	0	0	0	510	520	0	483	39	9	
13	0	0	0	0	512	521	0	486	39	9	
14	0	0	0	0	503	521	0	483	39	9	
15	0	0	0	0	507	521	0	481	38	9	
0	0	0	0	0	509	521	0	477	39	9	
1	0	0	0	0	506	521	0	474	38	9	
2	0	0	0	0	512	521	0	475	39	9	
3	0	0	0	0	507	521	0	478	38	9	
4	0	0	0	0	504	521	0	481	38	9	
5	0	0	0	0	508	521	0	481	38	9	
6	0	0	0	0	507	521	0	484	38	9	
7	0	0	0	0	508	521	0	485	38	9	
8	0	0	0	0	512	521	0	483	39	9	
9	0	0	0	0	507	521	0	483	39	9	
10	0	0	0	0	499	521	0	483	38	9	
11	0	0	0	0	510	521	0	486	38	9	
12	0	0	0	0	508	521	0	487	38	9	
13	0	0	0	0	508	522	0	489	38	9	
14	0	0	0	0	504	522	0	489	38	9	
15	0	0	0	0	502	523	0	500	39	9	
0	0	0	0	0	509	524	0	525	39	9	
1	0	0	0	0	507	524	0	532	39	9	
2	0	0	0	0	511	524	0	551	38	9	
3	0	0	0	0	513	525	0	560	38	9	
4	0	0	0	0	507	526	0	564	39	9	
5	0	0	0	0	503	526	0	579	39	9	
6	0	0	0	0	507	527	0	575	39	9	
7	0	0	0	0	506	527	0	581	39	9	
8	0	0	0	0	513	528	0	574	39	9	
9	0	0	0	0	504	528	0	568	39	9	
10	0	0	0	0	510	529	0	580	39	9	
11	0	0	0	0	508	530	0	568	39	9	
12	0	0	0	0	510	531	0	563	39	9	
13	0	0	0	0	508	531	0	548	39	9	
14	0	0	0	0	504	531	0	536	39	9	
15	0	0	0	0	514	531	0	526	39	9	
0	0	0	0	0	503	531	0	515	39	9	
1	0	0	0	0	510	531	0	507	39	9	
2	0	0	0	0	508	531	0	500	39	9	
3	0	0	0	0	509	531	0	497	39	9	
4	0	0	0	0	507	532	0	498	39	9	
5	0	0	0	0	508	531	0	497	39	9	
6	0	0	0	0	502	532	0	497	39	9	
7	0	0	0	0	503	532	0	492	39	9	
8	0	0	0	0	511	532	0	487	39	9	
9	0	0	0	0	514	532	0	485	39	9	
10	0	0	0	0	502	533	0	483	39	9	
11	0	0	0	0	505	533	0	485	39	9	
12	0	0	0	0	513	532	0	485	39	9	
13	0	0	0	0	510	532	0	487	39	9	
14	0	0	0	0	510	531	0	488	39	9	
15	0	0	0	0	509	531	0	489	39	9	
0	0	0	0	0	503	529	0	487	39	9	
1	0	0	0	0	499	529	0	484	39	9	
2	0	0	0	0	511	528	0	502	39	9	
3	0	0	0	0	513	527	0	487	38	9	
4	0	0	0	0	499	526	0	489	38	9	
5	0	0	0	0	505	524	0	491	39	9	
6	0	0	0	0	503	523	0	491	39	9	
7	0	0	0	0	510	521	0	493	39	9	
8	0	0	0	0	505	520	0	494	39	9	
9	0	0	0	0	507	519	0	518	38	9	
10	0	0	0	0	507	519	0	531	38	9	
11	0	0	0	0	511	518	0	547	38	9	
12	0	0	0	0	509	517	0	561	38	9	
13	0	0	0	0	510	515	0	561	38	9	
14	0	0	0	0	506	514	0	576	39	9	
15	0	0	0	0	508	514	0	571	39	9	
0	0	0	0	0	511	513	0	548	39	9	
1	0	0	0	0	504	513	0	537	39	9	
2	0	0	0	0	508	512	0	549	39	9	
3	0	0	0	0	513	511	0	548	39	9	
4	0	0	0	0	504	511	0	559	38	9	
5	0	0	0	0	499	510	0	560	38	9	
6	0	0	0	0	498	508	0	559	39	9	
7	0	0	0	0	506	507	0	567	39	9	
8	0	0	0	0	499	507	0	555	39	9	
9	0	0	0	0	507	506	0	560	39	9	
10	0	0	0	0	513	505	0	560	38	9	
11	0	0	0	0	514	505	0	555	38	9	
12	0	0	0	0	508	504	0	546	38	9	
13	0	0	0	0	512	502	0	529	38	9	
14	0	0	0	0	513	500	0	519	38	9	
15	0	0	0	0	512	498	0	504	39	9	
0	0	0	0	0	515	497	0	494	39	9	
1	0	0	0	0	510	495	0	485	38	9	
2	0	0	0	0	506	493	0	481	39	9	
3	0	0	0	0	499	491	0	478	39	9	
4	0	0	0	0	504	489	0	476	39	9	
5	0	0	0	0	504	487	0	476	39	9	
6	0	0	0	0	505	484	0	477	39	9	
7	0	0	0	0	509	483	0	477	39	9	
8	0	0	0	0	509	481	0	473	39	9	
9	0	0	0	0	506	479	0	471	39	9	
10	0	0	0	0	510	477	0	472	39	9	
11	0	0	0	0	505	475	0	475	39	9	
12	0	0	0	0	516	473	0	478	39	9	
13	0	0	0	0	511	472	0	480	39	9	
14	0	0	0	0	504	470	0	480	39	9	
15	0	0	0	0	506	469	0	483	39	9	
0	0	0	0	0	510	467	0	476	39	9	
1	0	0	0	0	504	467	0	475	38	9	
2	0	0	0	0	505	466	0	473	39	9	
3	0	0	0	0	507	465	0	474	39	9	
4	0	0	0	0	510	465	0	479	39	9	
5	0	0	0	0	508	464	0	481	39	9	
6	0	0	0	0	501	464	0	486	39	9	
7	0	0	0	0	508	464	0	486	38	9	
8	0	0	0	0	509	463	0	484	39	9	
9	0	0	0	0	509	463	0	482	39	9	
10	0	0	0	0	506	462	0	483	39	9	
11	0	0	0	0	503	462	0	486	38	9	
12	0	0	0	0	507	461	0	486	38	9	
13	0	0	0	0	508	461	0	486	38	9	
14	0	0	0	0	501	462	0	487	38	9	
15	0	0	0	0	500	462	0	486	38	9	
0	0	0	0	0	504	463	0	483	39	9	
1	0	0	0	0	515	463	0	476	39	9	
2	0	0	0	0	509	463	0	475	39	9	
3	0	0	0	0	510	463	0	475	38	9	
4	0	0	0	0	512	464	0	476	38	9	
5	0	0	0	0	507	464	0	480	39	9	
6	0	0	0	0	504	465	0	478	38	9	
7	0	0	0	0	506	465	0	475	38	9	
8	0	0	0	0	504	465	0	481	39	9	
9	0	0	0	0	506	465	0	503	38	9	
10	0	0	0	0	508	466	0	513	39	9	
11	0	0	0	0	506	466	0	532	39	9	
12	0	0	0	0	510	467	0	545	39	9	
13	0	0	0	0	514	467	0	549	39	9	
14	0	0	0	0	507	468	0	560	39	9	
15	0	0	0	0	510	468	0	552	39	9	
0	0	0	0	0	507	468	0	556	39	9	
1	0	0	0	0	511	468	0	555	39	9	
2	0	0	0	0	500	469	0	551	39	9	
3	0	0	0	0	507	470	0	561	39	9	
4	0	0	0	0	509	470	0	555	39	9	
5	0	0	0	0	505	470	0	560	39	9	
6	0	0	0	0	515	471	0	559	39	9	
7	0	0	0	0	512	471	0	555	39	9	
8	0	0	0	0	505	472	0	560	39	9	
9	0	0	0	0	505	472	0	551	39	9	
10	0	0	0	0	510	472	0	555	39	9	
11	0	0	0	0	509	473	0	555	39	9	
12	0	0	0	0	504	473	0	549	39	9	
13	0	0	0	0	508	474	0	544	39	9	
14	0	0	0	0	506	474	0	556	39	9	
15	0	0	0	0	510	475	0	550	39	9	
0	0	0	0	0	498	475	0	542	39	9	
1	0	0	0	0	507	476	0	528	39	9	
2	0	0	0	0	514	476	0	513	39	9	
3	0	0	0	0	504	476	0	502	39	9	
4	0	0	0	0	508	476	0	488	39	9	
5	0	0	0	0	509	476	0	481	38	9	
6	0	0	0	0	508	477	0	476	39	9	
7	0	0	0	0	507	477	0	480	39	9	
8	0	0	0	0	504	478	0	505	39	9	
9	0	0	0	0	507	478	0	512	39	9	
10	0	0	0	0	504	479	0	526	39	9	
11	0	0	0	0	512	479	0	543	39	9	
12	0	0	0	0	507	480	0	544	39	9	
13	0	0	0	0	506	480	0	549	39	9	
14	0	0	0	0	511	481	0	551	39	9	
15	0	0	0	0	516	481	0	548	39	9	
0	0	0	0	0	506	482	0	542	39	9	
1	0	0	0	0	502	482	0	531	38	9	
2	0	0	0	0	511	483	0	516	39	9	
3	0	0	0	0	513	482	0	502	39	9	
4	0	0	0	0	504	481	0	494	39	9	
5	0	0	0	0	504	481	0	487	39	9	
6	0	0	0	0	511	481	0	483	39	9	
7	0	0	0	0	505	481	0	483	39	9	
8	0	0	0	0	508	482	0	476	39	9	
9	0	0	0	0	509	483	0	471	39	9	
10	0	0	0	0	507	483	0	469	39	9	
11	0	0	0	0	501	483	0	470	39	9	
12	0	0	0	0	505	483	0	475	39	9	
13	0	0	0	0	510	484	0	474	39	9	
14	0	0	0	0	509	484	0	472	38	9	
15	0	0	0	0	507	485	0	470	38	9	
0	0	0	0	0	499	486	0	467	39	9	
1	0	0	0	0	504	485	0	463	39	9	
2	0	0	0	0	511	486	0	464	38	9	
3	0	0	0	0	503	486	0	468	39	9	
4	0	0	0	0	506	486	0	470	38	9	
5	0	0	0	0	514	487	0	473	39	9	
6	0	0	0	0	509	487	0	476	39	9	
7	0	0	0	0	505	487	0	475	38	9	
8	0	0	0	0	505	487	0	474	39	9	
9	0	0	0	0	505	488	0	468	39	9	
10	0	0	0	0	511	488	0	468	39	9	
11	0	0	0	0	507	488	0	470	39	9	
12	0	0	0	0	508	488	0	473	38	9	
13	0	0	0	0	503	488	0	494	39	9	
14	0	0	0	0	500	489	0	519	39	9	
15	0	0	0	0	507	489	0	528	39	9	
0	0	0	0	0	518	489	0	544	39	9	
1	0	0	0	0	510	489	0	543	39	9	
2	0	0	0	0	511	490	0	547	39	9	
3	0	0	0	0	510	489	0	559	39	9	
4	0	0	0	0	508	490	0	558	39	9	
5	0	0	0	0	499	490	0	569	39	9	
6	0	0	0	0	510	491	0	572	39	9	
7	0	0	0	0	503	491	0	568	39	9	
8	0	0	0	0	511	491	0	570	39	9	
9	0	0	0	0	513	492	0	552	39	9	
10	0	0	0	0	510	492	0	534	39	9	
11	0	0	0	0	509	492	0	517	39	9	
12	0	0	0	0	511	492	0	505	39	9	
13	0	0	0	0	504	492	0	500	39	9	
14	0	0	0	0	508	492	0	494	39	9	
15	0	0	0	0	508	492	0	491	39	9	
0	0	0	0	0	504	493	0	486	39	9	
1	0	0	0	0	506	493	0	484	39	9	
2	0	0	0	0	507	493	0	491	39	9	
3	0	0	0	0	508	493	0	489	39	9	
4	0	0	0	0	514	494	0	491	39	9	
5	0	0	0	0	507	494	0	492	39	9	
6	0	0	0	0	511	493	0	492	38	9	
7	0	0	0	0	505	493	0	491	39	9	
8	0	0	0	0	507	493	0	484	39	9	
9	0	0	0	0	501	494	0	481	39	9	
10	0	0	0	0	504	494	0	481	39	9	
11	0	0	0	0	516	494	0	485	39	9	
12	0	0	0	0	514	494	0	489	39	9	
13	0	0	0	0	512	494	0	492	39	9	
14	0	0	0	0	508	494	0	495	39	9	
15	0	0	0	0	509	494	0	492	39	9	
0	0	0	0	0	507	494	0	488	39	9	
1	0	0	0	0	505	494	0	488	39	9	
2	0	0	0	0	508	494	0	489	39	9	
3	0	0	0	0	510	495	0	505	39	9	
4	0	0	0	0	507	495	0	493	39	9	
5	0	0	0	0	503	495	0	495	39	9	
6	0	0	0	0	505	495	0	495	39	9	
7	0	0	0	0	508	495	0	496	39	9	
8	0	0	0	0	505	496	0	503	39	9	
9	0	0	0	0	512	496	0	491	39	9	
10	0	0	0	0	515	496	0	491	38	9	
11	0	0	0	0	509	496	0	492	38	9	
12	0	0	0	0	505	497	0	494	38	9	
13	0	0	0	0	507	497	0	498	38	9	
14	0	0	0	0	510	497	0	499	38	9	
15	0	0	0	0	510	497	0	497	38	9	
0	0	0	0	0	503	498	0	494	39	9	
1	0	0	0	0	505	498	0	492	39	9	
2	0	0	0	0	512	498	0	495	39	9	
3	0	0	0	0	502	498	0	495	39	9	
4	0	0	0	0	519	498	0	496	38	9	
5	0	0	0	0	508	498	0	497	38	9	
6	0	0	0	0	504	498	0	507	39	9	
7	0	0	0	0	503	498	0	534	38	9	
8	0	0	0	0	506	498	0	547	39	9	
9	0	0	0	0	506	499	0	574	39	9	
10	0	0	0	0	504	499	0	573	39	9	
11	0	0	0	0	517	499	0	572	39	9	
12	0	0	0	0	508	499	0	583	39	9	
13	0	0	0	0	505	499	0	581	39	9	
14	0	0	0	0	506	499	0	582	38	9	
15	0	0	0	0	508	499	0	585	39	9	
0	0	0	0	0	512	499	0	576	39	9	
1	0	0	0	0	504	499	0	582	39	9	
2	0	0	0	0	510	499	0	576	39	9	
3	0	0	0	0	507	499	0	576	39	9	
4	0	0	0	0	503	499	0	583	39	9	
5	0	0	0	0	507	500	0	588	39	9	
6	0	0	0	0	511	500	0	551	39	9	
7	0	0	0	0	506	500	0	529	38	9	
8	0	0	0	0	503	500	0	507	39	9	
9	0	0	0	0	504	500	0	495	38	9	
10	0	0	0	0	504	500	0	493	39	9	
11	0	0	0	0	507	500	0	491	39	9	
12	0	0	0	0	506	500	0	493	39	9	
13	0	0	0	0	511	500	0	493	39	9	
14	0	0	0	0	508	501	0	494	39	9	
15	0	0	0	0	517	500	0	496	39	9	
0	0	0	0	0	505	501	0	491	39	9	
1	0	0	0	0	508	501	0	486	39	9	
2	0	0	0	0	506	501	0	485	39	9	
3	0	0	0	0	507	502	0	487	39	9	
4	0	0	0	0	502	502	0	489	39	9	
5	0	0	0	0	512	501	0	491	39	9	
6	0	0	0	0	513	502	0	501	38	9	
7	0	0	0	0	508	502	0	492	38	9	
8	0	0	0	0	503	502	0	488	39	9	
9	0	0	0	0	510	502	0	485	39	9	
10	0	0	0	0	509	502	0	484	39	9	
11	0	0	0	0	507	502	0	484	39	9	
12	0	0	0	0	514	502	0	486	39	9	
13	0	0	0	0	512	503	0	493	39	9	
14	0	0	0	0	503	503	0	490	39	9	
15	0	0	0	0	507	504	0	489	39	9	
0	0	0	0	0	504	504	0	484	39	9	
1	0	0	0	0	512	504	0	481	39	9	
2	0	0	0	0	508	504	0	485	39	9	
3	0	0	0	0	509	504	0	485	39	9	
4	0	0	0	0	507	504	0	486	39	9	
5	0	0	0	0	504	504	0	487	39	9	
6	0	0	0	0	510	504	0	487	39	9	
7	0	0	0	0	506	504	0	487	39	9	
8	0	0	0	0	505	504	0	482	39	9	
9	0	0	0	0	500	504	0	479	39	9	
10	0	0	0	0	506	504	0	478	38	9	
11	0	0	0	0	505	504	0	481	39	9	
12	0	0	0	0	510	504	0	486	39	9	
13	0	0	0	0	509	504	0	485	39	9	
14	0	0	0	0	504	504	0	486	39	9	
15	0	0	0	0	500	504	0	483	39	9	
0	0	0	0	0	510	504	0	480	39	9	
1	0	0	0	0	510	504	0	479	38	9	
2	0	0	0	0	504	504	0	483	39	9	
3	0	0	0	0	506	505	0	510	39	9	
4	0	0	0	0	507	505	0	522	39	9	
5	0	0	0	0	507	505	0	539	39	9	
6	0	0	0	0	507	505	0	552	39	9	
7	0	0	0	0	504	505	0	551	39	9	
8	0	0	0	0	512	505	0	563	39	9	
9	0	0	0	0	509	505	0	560	39	9	
10	0	0	0	0	507	506	0	563	39	9	
11	0	0	0	0	511	506	0	569	39	9	
12	0	0	0	0	516	506	0	565	39	9	
13	0	0	0	0	510	506	0	575	39	9	
14	0	0	0	0	509	506	0	575	39	9	
15	0	0	0	0	505	506	0	577	38	9	
0	0	0	0	0	505	506	0	575	39	9	
1	0	0	0	0	503	505	0	556	39	9	
2	0	0	0	0	504	505	0	536	38	9	
3	0	0	0	0	504	505	0	519	39	9	
4	0	0	0	0	508	505	0	507	38	9	
5	0	0	0	0	512	505	0	497	39	9	
6	0	0	0	0	511	505	0	506	39	9	
7	0	0	0	0	509	505	0	483	39	9	
8	0	0	0	0	505	505	0	476	39	9	
9	0	0	0	0	509	505	0	472	39	9	
10	0	0	0	0	515	505	0	472	39	9	
11	0	0	0	0	510	505	0	474	39	9	
12	0	0	0	0	506	505	0	476	39	9	
13	0	0	0	0	505	506	0	478	39	9	
14	0	0	0	0	504	505	0	476	39	9	
15	0	0	0	0	504	506	0	472	39	9	
0	0	0	0	0	501	506	0	468	39	9	
1	0	0	0	0	507	505	0	463	39	9	
2	0	0	0	0	513	506	0	462	39	9	
3	0	0	0	0	508	505	0	463	39	9	
4	0	0	0	0	509	506	0	467	39	9	
5	0	0	0	0	508	506	0	470	38	9	
6	0	0	0	0	509	506	0	474	38	9	
7	0	0	0	0	511	506	0	475	39	9	
8	0	0	0	0	501	507	0	468	39	9	
9	0	0	0	0	507	507	0	466	39	9	
10	0	0	0	0	507	506	0	467	38	9	
11	0	0	0	0	507	506	0	472	39	9	
12	0	0	0	0	505	505	0	477	39	9	
13	0	0	0	0	507	505	0	476	39	9	
14	0	0	0	0	508	506	0	477	39	9	
15	0	0	0	0	501	506	0	475	39	9	
0	0	0	0	0	508	506	0	471	39	9	
1	0	0	0	0	509	506	0	467	38	9	
2	0	0	0	0	515	506	0	467	39	9	
3	0	0	0	0	517	505	0	469	39	9	
4	0	0	0	0	511	505	0	471	39	9	
5	0	0	0	0	508	505	0	473	39	9	
6	0	0	0	0	512	506	0	476	39	9	
7	0	0	0	0	509	507	0	475	39	9	
8	0	0	0	0	500	507	0	473	39	9	
9	0	0	0	0	510	508	0	470	39	9	
10	0	0	0	0	509	509	0	472	39	9	
11	0	0	0	0	508	510	0	473	39	9	
12	0	0	0	0	505	511	0	476	38	9	
13	0	0	0	0	510	512	0	479	39	9	
14	0	0	0	0	507	512	0	487	39	9	
15	0	0	0	0	509	514	0	510	39	9	
0	0	0	0	0	501	515	0	513	39	9	
1	0	0	0	0	510	516	0	525	39	9	
2	0	0	0	0	508	518	0	540	39	9	
3	0	0	0	0	504	519	0	540	39	9	
4	0	0	0	0	505	519	0	555	39	9	
5	0	0	0	0	504	520	0	552	39	9	
6	0	0	0	0	503	521	0	554	39	9	
7	0	0	0	0	509	522	0	552	39	9	
8	0	0	0	0	513	522	0	543	39	9	
9	0	0	0	0	508	523	0	554	39	9	
10	0	0	0	0	504	523	0	551	39	9	
11	0	0	0	0	500	524	0	555	39	9	
12	0	0	0	0	502	524	0	561	39	9	
13	0	0	0	0	511	524	0	551	39	9	
14	0	0	0	0	511	524	0	532	39	9	
15	0	0	0	0	505	525	0	511	38	9	
0	0	0	0	0	515	525	0	495	39	9	
1	0	0	0	0	519	526	0	481	39	9	
2	0	0	0	0	507	526	0	478	39	9	
3	0	0	0	0	504	526	0	477	39	9	
4	0	0	0	0	507	527	0	476	38	9	
5	0	0	0	0	514	527	0	477	38	9	
6	0	0	0	0	506	528	0	479	38	9	
7	0	0	0	0	506	527	0	476	38	9	
8	0	0	0	0	506	528	0	473	39	9	
9	0	0	0	0	520	528	0	470	39	9	
10	0	0	0	0	503	528	0	470	38	9	
11	0	0	0	0	498	528	0	473	39	9	
12	0	0	0	0	502	527	0	487	39	9	
13	0	0	0	0	505	528	0	478	38	9	
14	0	0	0	0	504	528	0	475	38	9	
15	0	0	0	0	508	527	0	471	38	9	
0	0	0	0	0	510	527	0	471	38	9	
1	0	0	0	0	513	527	0	468	38	9	
2	0	0	0	0	503	527	0	472	38	9	
3	0	0	0	0	503	526	0	478	39	9	
4	0	0	0	0	509	526	0	479	39	9	
5	0	0	0	0	511	527	0	482	39	9	
6	0	0	0	0	511	526	0	481	39	9	
7	0	0	0	0	508	526	0	480	38	9	
8	0	0	0	0	514	524	0	476	39	9	
9	0	0	0	0	513	524	0	477	39	9	
10	0	0	0	0	510	523	0	483	39	9	
11	0	0	0	0	504	523	0	486	38	9	
12	0	0	0	0	504	522	0	487	39	9	
13	0	0	0	0	506	521	0	485	39	9	
14	0	0	0	0	499	521	0	483	39	9	
15	0	0	0	0	506	520	0	481	39	9	
0	0	0	0	0	508	519	0	478	39	9	
1	0	0	0	0	504	519	0	476	39	9	
2	0	0	0	0	507	518	0	476	39	9	
3	0	0	0	0	503	518	0	480	39	9	
4	0	0	0	0	510	517	0	495	38	9	
5	0	0	0	0	508	515	0	523	39	9	
6	0	0	0	0	512	515	0	537	39	9	
7	0	0	0	0	505	514	0	553	39	9	
8	0	0	0	0	499	512	0	564	39	9	
9	0	0	0	0	508	510	0	566	39	9	
10	0	0	0	0	507	510	0	576	39	9	
11	0	0	0	0	509	509	0	571	39	9	
12	0	0	0	0	504	508	0	574	39	9	
13	0	0	0	0	503	507	0	574	39	9	
14	0	0	0	0	513	506	0	570	39	9	
15	0	0	0	0	511	504	0	580	39	9	
0	0	0	0	0	506	503	0	574	39	9	
1	0	0	0	0	509	502	0	578	39	9	
2	0	0	0	0	504	501	0	577	39	9	
3	0	0	0	0	508	499	0	560	38	9	
4	0	0	0	0	504	499	0	543	39	9	
5	0	0	0	0	505	497	0	524	39	9	
6	0	0	0	0	508	497	0	512	39	9	
7	0	0	0	0	511	496	0	501	39	9	
8	0	0	0	0	508	495	0	489	39	9	
9	0	0	0	0	508	495	0	491	38	9	
10	0	0	0	0	512	495	0	514	39	9	
11	0	0	0	0	502	496	0	526	39	9	
12	0	0	0	0	504	496	0	542	39	9	
13	0	0	0	0	515	496	0	556	39	9	
14	0	0	0	0	507	495	0	557	39	9	
15	0	0	0	0	505	495	0	567	39	9	
0	0	0	0	0	510	495	0	560	39	9	
1	0	0	0	0	505	495	0	561	39	9	
2	0	0	0	0	501	496	0	568	39	9	
3	0	0	0	0	508	496	0	556	39	9	
4	0	0	0	0	509	496	0	540	39	9	
5	0	0	0	0	511	496	0	525	39	9	
6	0	0	0	0	508	496	0	509	39	9	
7	0	0	0	0	508	496	0	496	39	9	
8	0	0	0	0	511	496	0	486	39	9	
9	0	0	0	0	505	496	0	480	39	9	
10	0	0	0	0	512	496	0	480	39	9	
11	0	0	0	0	512	496	0	479	38	9	
12	0	0	0	0	506	497	0	479	39	9	
13	0	0	0	0	509	497	0	481	39	9	
14	0	0	0	0	504	497	0	483	38	9	
15	0	0	0	0	509	497	0	486	38	9	
0	0	0	0	0	505	497	0	482	39	9	
1	0	0	0	0	508	497	0	481	38	9	
2	0	0	0	0	508	497	0	481	38	9	
3	0	0	0	0	502	497	0	483	38	9	
4	0	0	0	0	508	497	0	483	38	9	
5	0	0	0	0	510	497	0	486	39	9	
6	0	0	0	0	509	497	0	488	39	9	
7	0	0	0	0	507	497	0	483	38	9	
8	0	0	0	0	507	498	0	480	39	9	
9	0	0	0	0	508	498	0	474	38	9	
10	0	0	0	0	512	497	0	475	39	9	
11	0	0	0	0	508	498	0	478	39	9	
12	0	0	0	0	505	498	0	479	39	9	
13	0	0	0	0	506	499	0	478	39	9	
14	0	0	0	0	503	499	0	472	39	9	
15	0	0	0	0	497	498	0	469	38	9	
0	0	0	0	0	503	499	0	467	39	9	
1	0	0	0	0	507	499	0	462	39	9	
2	0	0	0	0	512	499	0	465	39	9	
3	0	0	0	0	514	499	0	469	39	9	
4	0	0	0	0	512	499	0	472	39	9	
5	0	0	0	0	509	500	0	477	39	9	
6	0	0	0	0	508	499	0	473	39	9	
7	0	0	0	0	509	500	0	470	39	9	
8	0	0	0	0	508	500	0	467	39	9	
9	0	0	0	0	515	500	0	467	38	9	
10	0	0	0	0	502	500	0	474	39	9	
11	0	0	0	0	505	500	0	477	39	9	
12	0	0	0	0	511	500	0	480	39	9	
13	0	0	0	0	504	500	0	477	39	9	
14	0	0	0	0	509	500	0	477	39	9	
15	0	0	0	0	503	501	0	474	39	9	
0	0	0	0	0	508	500	0	477	39	9	
1	0	0	0	0	512	500	0	508	39	9	
2	0	0	0	0	510	501	0	522	39	9	
3	0	0	0	0	505	501	0	540	39	9	
4	0	0	0	0	512	502	0	557	39	9	
5	0	0	0	0	508	502	0	560	39	9	
6	0	0	0	0	504	502	0	575	39	9	
7	0	0	0	0	506	502	0	571	39	9	
8	0	0	0	0	503	502	0	569	39	9	
9	0	0	0	0	503	502	0	569	39	9	
10	0	0	0	0	512	502	0	561	38	9	
11	0	0	0	0	509	501	0	567	39	9	
12	0	0	0	0	503	501	0	561	39	9	
13	0	0	0	0	510	502	0	563	39	9	
14	0	0	0	0	505	502	0	567	39	9	
15	0	0	0	0	504	502	0	554	39	9	
0	0	0	0	0	508	502	0	535	39	9	
1	0	0	0	0	504	502	0	518	39	9	
2	0	0	0	0	505	502	0	506	39	9	
3	0	0	0	0	515	503	0	495	39	9	
4	0	0	0	0	505	502	0	491	39	9	
5	0	0	0	0	507	503	0	483	39	9	
6	0	0	0	0	508	502	0	475	39	9	
7	0	0	0	0	505	501	0	470	39	9	
8	0	0	0	0	509	499	0	464	39	9	
9	0	0	0	0	508	496	0	461	38	9	
10	0	0	0	0	507	493	0	463	39	9	
11	0	0	0	0	509	489	0	467	38	9	
12	0	0	0	0	505	486	0	469	39	9	
13	0	0	0	0	510	483	0	471	39	9	
14	0	0	0	0	508	480	0	481	39	9	
15	0	0	0	0	508	477	0	467	39	9	
0	0	0	0	0	511	473	0	465	39	9	
1	0	0	0	0	503	470	0	466	39	9	
2	0	0	0	0	504	472	0	470	39	9	
3	0	0	0	0	505	474	0	474	39	9	
4	0	0	0	0	508	479	0	477	39	9	
5	0	0	0	0	509	486	0	477	39	9	
6	0	0	0	0	506	494	0	473	39	9	
7	0	0	0	0	514	503	0	475	39	9	
8	0	0	0	0	504	512	0	470	39	9	
9	0	0	0	0	501	522	0	470	39	9	
10	0	0	0	0	512	532	0	472	39	9	
11	0	0	0	0	508	543	0	474	39	9	
12	0	0	0	0	505	554	0	481	39	9	
13	0	0	0	0	506	565	0	480	39	9	
14	0	0	0	0	506	575	0	478	39	9	
15	0	0	0	0	510	586	0	475	39	9	
0	0	0	0	0	510	597	0	473	39	9	
1	0	0	0	0	502	607	0	475	39	9	
2	0	0	0	0	508	616	0	476	39	9	
3	0	0	0	0	512	626	0	481	39	9	
4	0	0	0	0	506	637	0	483	39	9	
5	0	0	0	0	508	647	0	482	39	9	
6	0	0	0	0	511	657	0	480	38	9	
7	0	0	0	0	505	667	0	478	39	9	
8	0	0	0	0	515	676	0	479	39	9	
9	0	0	0	0	507	685	0	475	38	9	
10	0	0	0	0	504	692	0	476	38	9	
11	0	0	0	0	504	697	0	480	39	9	
12	0	0	0	0	510	699	0	491	39	9	
13	0	0	0	0	506	701	0	519	39	9	
14	0	0	0	0	510	698	0	531	39	9	
15	0	0	0	0	510	692	0	548	38	9	
0	0	0	0	0	502	684	0	563	39	9	
1	0	0	0	0	513	674	0	564	39	9	
2	0	0	0	0	508	664	0	578	39	9	
3	0	0	0	0	508	651	0	573	39	9	
4	0	0	0	0	506	638	0	574	39	9	
5	0	0	0	0	503	624	0	575	38	9	
6	0	0	0	0	510	611	0	569	38	9	
7	0	0	0	0	512	598	0	575	38	9	
8	0	0	0	0	511	584	0	572	39	9	
9	0	0	0	0	506	569	0	574	38	9	
10	0	0	0	0	509	555	0	577	39	9	
11	0	0	0	0	499	541	0	564	39	9	
12	0	0	0	0	507	527	0	543	38	9	
13	0	0	0	0	511	512	0	525	38	9	
14	0	0	0	0	506	498	0	510	38	9	
15	0	0	0	0	508	484	0	501	38	9	
0	0	0	0	0	501	471	0	499	39	9	
1	0	0	0	0	502	458	0	487	38	9	
2	0	0	0	0	510	444	0	483	38	9	
3	0	0	0	0	507	431	0	482	39	9	
4	0	0	0	0	502	418	0	481	39	9	
5	0	0	0	0	505	405	0	481	39	9	
6	0	0	0	0	509	397	0	476	39	9	
7	0	0	0	0	511	393	0	471	39	9	
8	0	0	0	0	512	393	0	467	39	9	
9	0	0	0	0	507	396	0	467	39	9	
10	0	0	0	0	503	398	0	469	38	9	
11	0	0	0	0	509	403	0	473	39	9	
12	0	0	0	0	515	409	0	476	39	9	
13	0	0	0	0	509	415	0	476	39	9	
14	0	0	0	0	510	422	0	474	39	9	
15	0	0	0	0	507	429	0	473	39	9	
0	0	0	0	0	507	437	0	472	39	9	
1	0	0	0	0	505	444	0	471	39	9	
2	0	0	0	0	509	451	0	473	38	9	
3	0	0	0	0	503	456	0	478	39	9	
4	0	0	0	0	506	460	0	482	39	9	
5	0	0	0	0	504	463	0	483	38	9	
6	0	0	0	0	505	465	0	480	39	9	
7	0	0	0	0	504	467	0	478	39	9	
8	0	0	0	0	504	469	0	477	39	9	
9	0	0	0	0	507	470	0	476	39	9	
10	0	0	0	0	510	471	0	479	39	9	
11	0	0	0	0	514	472	0	492	39	9	
12	0	0	0	0	505	472	0	486	38	9	
13	0	0	0	0	513	473	0	491	39	9	
14	0	0	0	0	511	473	0	495	39	9	
15	0	0	0	0	509	475	0	496	39	9	
0	0	0	0	0	512	476	0	507	39	9	
1	0	0	0	0	502	476	0	498	39	9	
2	0	0	0	0	504	476	0	496	39	9	
3	0	0	0	0	509	476	0	497	38	9	
4	0	0	0	0	512	477	0	499	38	9	
5	0	0	0	0	508	477	0	501	38	9	
6	0	0	0	0	508	477	0	500	38	9	
7	0	0	0	0	509	478	0	502	39	9	
8	0	0	0	0	504	478	0	507	39	9	
9	0	0	0	0	509	479	0	535	39	9	
10	0	0	0	0	510	480	0	550	39	9	
11	0	0	0	0	509	480	0	562	39	9	
12	0	0	0	0	511	480	0	574	39	9	
13	0	0	0	0	506	481	0	572	39	9	
14	0	0	0	0	505	481	0	582	39	9	
15	0	0	0	0	510	482	0	577	38	9	
0	0	0	0	0	511	482	0	579	39	9	
1	0	0	0	0	506	483	0	587	39	9	
2	0	0	0	0	501	483	0	579	39	9	
3	0	0	0	0	512	484	0	587	39	9	
4	0	0	0	0	505	485	0	580	39	9	
5	0	0	0	0	505	486	0	580	39	9	
6	0	0	0	0	501	486	0	585	38	9	
7	0	0	0	0	504	486	0	573	38	9	
8	0	0	0	0	509	486	0	555	39	9	
9	0	0	0	0	505	487	0	535	38	9	
10	0	0	0	0	512	487	0	520	39	9	
11	0	0	0	0	503	487	0	509	39	9	
12	0	0	0	0	509	487	0	504	39	9	
13	0	0	0	0	510	488	0	501	39	9	
14	0	0	0	0	510	489	0	498	38	9	
15	0	0	0	0	506	489	0	496	38	9	
0	0	0	0	0	510	491	0	496	39	9	
1	0	0	0	0	506	491	0	494	38	9	
2	0	0	0	0	505	491	0	494	38	9	
3	0	0	0	0	515	492	0	496	38	9	
4	0	0	0	0	507	492	0	500	39	9	
5	0	0	0	0	510	492	0	496	39	9	
6	0	0	0	0	507	493	0	494	39	9	
7	0	0	0	0	515	493	0	491	39	9	
8	0	0	0	0	507	493	0	488	39	9	
9	0	0	0	0	506	494	0	488	38	9	
10	0	0	0	0	508	495	0	491	39	9	
11	0	0	0	0	503	495	0	496	39	9	
12	0	0	0	0	507	496	0	502	39	9	
13	0	0	0	0	506	496	0	505	39	9	
14	0	0	0	0	512	496	0	507	39	9	
15	0	0	0	0	504	496	0	506	39	9	
0	0	0	0	0	511	497	0	509	39	9	
1	0	0	0	0	506	497	0	509	38	9	
2	0	0	0	0	513	498	0	510	39	9	
3	0	0	0	0	503	498	0	510	39	9	
4	0	0	0	0	511	499	0	510	38	9	
5	0	0	0	0	505	499	0	527	39	9	
6	0	0	0	0	505	499	0	510	38	9	
7	0	0	0	0	510	500	0	512	38	9	
8	0	0	0	0	508	500	0	513	39	9	
9	0	0	0	0	513	502	0	515	39	9	
10	0	0	0	0	513	503	0	519	39	9	
11	0	0	0	0	508	503	0	515	39	9	
12	0	0	0	0	500	503	0	517	39	9	
13	0	0	0	0	508	504	0	515	39	9	
14	0	0	0	0	504	504	0	515	39	9	
15	0	0	0	0	511	504	0	519	39	9	
0	0	0	0	0	506	505	0	516	39	9	
1	0	0	0	0	511	506	0	515	39	9	
2	0	0	0	0	505	506	0	513	39	9	
3	0	0	0	0	509	506	0	513	39	9	
4	0	0	0	0	506	507	0	523	39	9	
5	0	0	0	0	510	507	0	545	39	9	
6	0	0	0	0	504	508	0	557	39	9	
7	0	0	0	0	501	508	0	570	39	9	
8	0	0	0	0	507	508	0	584	39	9	
9	0	0	0	0	514	508	0	586	39	9	
10	0	0	0	0	510	508	0	599	39	9	
11	0	0	0	0	507	508	0	599	39	9	
12	0	0	0	0	509	509	0	600	39	9	
13	0	0	0	0	504	509	0	606	39	9	
14	0	0	0	0	510	509	0	601	39	9	
15	0	0	0	0	508	509	0	607	39	9	
0	0	0	0	0	508	509	0	604	39	9	
1	0	0	0	0	512	510	0	604	39	9	
2	0	0	0	0	503	510	0	606	39	9	
3	0	0	0	0	507	510	0	591	39	9	
4	0	0	0	0	503	510	0	571	39	9	
5	0	0	0	0	508	511	0	556	38	9	
6	0	0	0	0	505	511	0	536	38	9	
7	0	0	0	0	502	511	0	527	39	9	
8	0	0	0	0	509	511	0	521	39	9	
9	0	0	0	0	512	512	0	518	39	9	
10	0	0	0	0	507	512	0	517	39	9	
11	0	0	0	0	507	512	0	512	39	9	
12	0	0	0	0	512	513	0	511	39	9	
13	0	0	0	0	508	513	0	510	38	9	
14	0	0	0	0	515	513	0	509	39	9	
15	0	0	0	0	508	514	0	504	39	9	
0	0	0	0	0	506	514	0	498	39	9	
1	0	0	0	0	509	515	0	497	39	9	
2	0	0	0	0	505	515	0	498	39	9	
3	0	0	0	0	506	515	0	500	39	9	
4	0	0	0	0	508	515	0	502	39	9	
5	0	0	0	0	512	515	0	506	38	9	
6	0	0	0	0	510	515	0	509	38	9	
7	0	0	0	0	507	515	0	509	39	9	
8	0	0	0	0	508	515	0	509	39	9	
9	0	0	0	0	508	515	0	509	39	9	
10	0	0	0	0	514	515	0	507	38	9	
11	0	0	0	0	506	516	0	508	38	9	
12	0	0	0	0	506	516	0	506	38	9	
13	0	0	0	0	507	516	0	506	39	9	
14	0	0	0	0	505	515	0	506	39	9	
15	0	0	0	0	504	516	0	506	38	9	
0	0	0	0	0	511	516	0	505	39	9	
1	0	0	0	0	510	516	0	505	38	9	
2	0	0	0	0	497	516	0	504	39	9	
3	0	0	0	0	505	517	0	503	39	9	
4	0	0	0	0	509	517	0	503	38	9	
5	0	0	0	0	508	516	0	503	39	9	
6	0	0	0	0	503	516	0	511	39	9	
7	0	0	0	0	508	517	0	522	39	9	
8	0	0	0	0	502	518	0	522	39	9	
9	0	0	0	0	510	518	0	519	39	9	
10	0	0	0	0	514	518	0	515	39	9	
11	0	0	0	0	505	518	0	512	39	9	
12	0	0	0	0	511	519	0	511	39	9	
13	0	0	0	0	510	519	0	527	39	9	
14	0	0	0	0	516	519	0	546	39	9	
15	0	0	0	0	511	519	0	563	39	9	
0	0	0	0	0	510	519	0	573	39	9	
1	0	0	0	0	503	519	0	567	38	9	
2	0	0	0	0	502	520	0	575	39	9	
3	0	0	0	0	512	520	0	579	39	9	
4	0	0	0	0	510	520	0	579	39	9	
5	0	0	0	0	512	521	0	590	39	9	
6	0	0	0	0	506	521	0	585	39	9	
7	0	0	0	0	510	521	0	590	39	9	
8	0	0	0	0	500	522	0	597	39	9	
9	0	0	0	0	506	522	0	576	39	9	
10	0	0	0	0	504	521	0	558	39	9	
11	0	0	0	0	505	521	0	539	39	9	
12	0	0	0	0	508	522	0	525	39	9	
13	0	0	0	0	503	522	0	514	39	9	
14	0	0	0	0	510	522	0	509	39	9	
15	0	0	0	0	518	522	0	505	39	9	
0	0	0	0	0	508	521	0	504	39	9	
1	0	0	0	0	507	522	0	503	39	9	
2	0	0	0	0	497	521	0	504	39	9	
3	0	0	0	0	508	522	0	504	39	9	
4	0	0	0	0	514	521	0	502	39	9	
5	0	0	0	0	507	521	0	503	39	9	
6	0	0	0	0	507	521	0	504	39	9	
7	0	0	0	0	500	521	0	502	39	9	
8	0	0	0	0	513	522	0	503	39	9	
9	0	0	0	0	508	523	0	503	39	9	
10	0	0	0	0	512	523	0	503	39	9	
11	0	0	0	0	515	524	0	500	39	9	
12	0	0	0	0	507	524	0	499	39	9	
13	0	0	0	0	502	524	0	497	39	9	
14	0	0	0	0	514	525	0	497	39	9	
15	0	0	0	0	510	525	0	496	39	9	
0	0	0	0	0	509	526	0	494	39	9	
1	0	0	0	0	513	526	0	492	39	9	
2	0	0	0	0	508	527	0	492	39	9	
3	0	0	0	0	510	528	0	492	38	9	
4	0	0	0	0	505	529	0	493	39	9	
5	0	0	0	0	501	530	0	492	39	9	
6	0	0	0	0	506	531	0	492	39	9	
7	0	0	0	0	505	531	0	491	39	9	
8	0	0	0	0	504	531	0	492	39	9	
9	0	0	0	0	507	532	0	490	39	9	
10	0	0	0	0	510	532	0	490	39	9	
11	0	0	0	0	511	532	0	489	39	9	
12	0	0	0	0	509	532	0	489	38	9	
13	0	0	0	0	504	532	0	489	39	9	
14	0	0	0	0	510	532	0	490	39	9	
15	0	0	0	0	520	532	0	489	38	9	
0	0	0	0	0	504	532	0	488	39	9	
1	0	0	0	0	509	532	0	488	38	9	
2	0	0	0	0	503	533	0	489	39	9	
3	0	0	0	0	502	534	0	490	39	9	
4	0	0	0	0	512	534	0	489	39	9	
5	0	0	0	0	507	534	0	487	38	9	
6	0	0	0	0	501	533	0	499	38	9	
7	0	0	0	0	515	533	0	522	38	9	
8	0	0	0	0	505	532	0	529	39	9	
9	0	0	0	0	503	532	0	545	39	9	
10	0	0	0	0	506	531	0	554	39	9	
11	0	0	0	0	507	530	0	555	38	9	
12	0	0	0	0	505	529	0	569	38	9	
13	0	0	0	0	507	528	0	564	39	9	
14	0	0	0	0	510	526	0	571	38	9	
15	0	0	0	0	508	524	0	568	38	9	
0	0	0	0	0	507	523	0	563	39	9	
1	0	0	0	0	510	522	0	569	38	9	
2	0	0	0	0	511	521	0	563	39	9	
3	0	0	0	0	509	520	0	566	39	9	
4	0	0	0	0	502	519	0	563	39	9	
5	0	0	0	0	508	518	0	545	39	9	
6	0	0	0	0	502	518	0	526	39	9	
7	0	0	0	0	503	516	0	509	38	9	
8	0	0	0	0	512	515	0	497	39	9	
9	0	0	0	0	512	514	0	489	38	9	
10	0	0	0	0	502	513	0	485	39	9	
11	0	0	0	0	509	512	0	482	39	9	
12	0	0	0	0	509	512	0	480	39	9	
13	0	0	0	0	510	511	0	478	39	9	
14	0	0	0	0	508	510	0	472	39	9	
15	0	0	0	0	499	509	0	474	39	9	
0	0	0	0	0	510	508	0	463	39	9	
1	0	0	0	0	505	508	0	464	39	9	
2	0	0	0	0	508	507	0	462	39	9	
3	0	0	0	0	508	506	0	468	39	9	
4	0	0	0	0	503	505	0	467	39	9	
5	0	0	0	0	510	505	0	481	39	9	
6	0	0	0	0	512	504	0	467	39	9	
7	0	0	0	0	510	503	0	464	38	9	
8	0	0	0	0	507	501	0	464	39	9	
9	0	0	0	0	500	499	0	465	39	9	
10	0	0	0	0	512	498	0	471	38	9	
11	0	0	0	0	508	496	0	477	39	9	
12	0	0	0	0	510	494	0	479	39	9	
13	0	0	0	0	505	492	0	479	39	9	
14	0	0	0	0	512	489	0	478	39	9	
15	0	0	0	0	517	487	0	478	39	9	
0	0	0	0	0	499	485	0	480	39	9	
1	0	0	0	0	504	483	0	478	39	9	
2	0	0	0	0	499	481	0	482	38	9	
3	0	0	0	0	503	478	0	485	38	9	
4	0	0	0	0	511	476	0	487	39	9	
5	0	0	0	0	510	474	0	484	39	9	
6	0	0	0	0	503	472	0	483	39	9	
7	0	0	0	0	508	471	0	482	39	9	
8	0	0	0	0	510	470	0	483	39	9	
9	0	0	0	0	513	469	0	483	39	9	
10	0	0	0	0	504	468	0	486	39	9	
11	0	0	0	0	504	468	0	489	38	9	
12	0	0	0	0	506	467	0	491	39	9	
13	0	0	0	0	504	466	0	490	39	9	
14	0	0	0	0	509	466	0	489	39	9	
15	0	0	0	0	508	465	0	487	39	9	
0	0	0	0	0	504	464	0	485	39	9	
1	0	0	0	0	512	464	0	486	39	9	
2	0	0	0	0	510	464	0	503	39	9	
3	0	0	0	0	504	464	0	531	39	9	
4	0	0	0	0	505	463	0	547	39	9	
5	0	0	0	0	510	463	0	566	39	9	
6	0	0	0	0	503	463	0	594	39	9	
7	0	0	0	0	505	463	0	589	39	9	
8	0	0	0	0	505	463	0	574	39	9	
9	0	0	0	0	504	463	0	580	39	9	
10	0	0	0	0	508	463	0	580	39	9	
11	0	0	0	0	510	463	0	586	39	9	
12	0	0	0	0	509	463	0	588	39	9	
13	0	0	0	0	505	463	0	579	38	9	
14	0	0	0	0	506	463	0	583	38	9	
15	0	0	0	0	511	464	0	577	39	9	
0	0	0	0	0	505	464	0	574	39	9	
1	0	0	0	0	508	466	0	586	39	9	
2	0	0	0	0	511	467	0	570	38	9	
3	0	0	0	0	507	467	0	554	38	9	
4	0	0	0	0	512	467	0	534	38	9	
5	0	0	0	0	507	467	0	518	38	9	
6	0	0	0	0	508	467	0	504	38	9	
7	0	0	0	0	513	467	0	496	39	9	
8	0	0	0	0	510	468	0	490	39	9	
9	0	0	0	0	508	468	0	489	39	9	
10	0	0	0	0	504	469	0	490	39	9	
11	0	0	0	0	508	470	0	492	38	9	
12	0	0	0	0	503	470	0	492	39	9	
13	0	0	0	0	502	471	0	491	39	9	
14	0	0	0	0	510	471	0	489	38	9	
15	0	0	0	0	507	472	0	488	38	9	
0	0	0	0	0	507	472	0	487	39	9	
1	0	0	0	0	508	472	0	488	39	9	
2	0	0	0	0	506	473	0	491	39	9	
3	0	0	0	0	514	472	0	496	39	9	
4	0	0	0	0	501	472	0	495	39	9	
5	0	0	0	0	507	473	0	495	39	9	
6	0	0	0	0	519	473	0	492	39	9	
7	0	0	0	0	503	473	0	491	39	9	
8	0	0	0	0	510	474	0	491	39	9	
9	0	0	0	0	515	475	0	491	39	9	
10	0	0	0	0	509	476	0	494	39	9	
11	0	0	0	0	504	476	0	498	39	9	
12	0	0	0	0	507	476	0	495	39	9	
13	0	0	0	0	504	477	0	493	39	9	
14	0	0	0	0	508	478	0	490	39	9	
15	0	0	0	0	503	478	0	489	39	9	
0	0	0	0	0	505	478	0	487	39	9	
1	0	0	0	0	503	479	0	488	39	9	
2	0	0	0	0	510	479	0	490	39	9	
3	0	0	0	0	508	479	0	494	38	9	
4	0	0	0	0	511	479	0	496	39	9	
5	0	0	0	0	504	479	0	496	39	9	
6	0	0	0	0	507	480	0	494	39	9	
7	0	0	0	0	498	481	0	494	38	9	
8	0	0	0	0	505	481	0	493	39	9	
9	0	0	0	0	504	481	0	495	39	9	
10	0	0	0	0	509	481	0	500	39	9	
11	0	0	0	0	511	481	0	503	39	9	
12	0	0	0	0	509	482	0	502	39	9	
13	0	0	0	0	511	482	0	499	39	9	
14	0	0	0	0	509	483	0	497	39	9	
15	0	0	0	0	512	483	0	496	39	9	
0	0	0	0	0	510	483	0	496	39	9	
1	0	0	0	0	511	483	0	524	39	9	
2	0	0	0	0	504	483	0	544	39	9	
3	0	0	0	0	500	484	0	560	39	9	
4	0	0	0	0	497	485	0	584	39	9	
5	0	0	0	0	512	486	0	596	39	9	
6	0	0	0	0	512	486	0	577	39	9	
7	0	0	0	0	508	485	0	575	39	9	
8	0	0	0	0	517	486	0	579	39	9	
9	0	0	0	0	503	486	0	575	39	9	
10	0	0	0	0	508	486	0	588	39	9	
11	0	0	0	0	509	487	0	590	39	9	
12	0	0	0	0	506	487	0	596	38	9	
13	0	0	0	0	505	488	0	603	39	9	
14	0	0	0	0	509	488	0	598	39	9	
15	0	0	0	0	508	488	0	609	39	9	
0	0	0	0	0	514	488	0	623	39	9	
1	0	0	0	0	505	488	0	608	39	9	
2	0	0	0	0	503	488	0	586	39	9	
3	0	0	0	0	504	489	0	564	39	9	
4	0	0	0	0	511	489	0	545	39	9	
5	0	0	0	0	510	489	0	533	39	9	
6	0	0	0	0	507	489	0	524	38	9	
7	0	0	0	0	503	489	0	519	39	9	
8	0	0	0	0	505	489	0	516	39	9	
9	0	0	0	0	513	490	0	516	39	9	
10	0	0	0	0	510	489	0	515	38	9	
11	0	0	0	0	504	489	0	515	38	9	
12	0	0	0	0	507	489	0	515	38	9	
13	0	0	0	0	507	490	0	515	39	9	
14	0	0	0	0	512	490	0	514	38	9	
15	0	0	0	0	511	489	0	514	38	9	
0	0	0	0	0	511	489	0	513	39	9	
1	0	0	0	0	504	490	0	515	39	9	
2	0	0	0	0	504	490	0	515	38	9	
3	0	0	0	0	503	490	0	516	39	9	
4	0	0	0	0	500	491	0	517	38	9	
5	0	0	0	0	511	491	0	516	38	9	
6	0	0	0	0	514	491	0	517	38	9	
7	0	0	0	0	512	490	0	517	38	9	
8	0	0	0	0	502	490	0	516	39	9	
9	0	0	0	0	508	491	0	534	39	9	
10	0	0	0	0	507	491	0	534	39	9	
11	0	0	0	0	511	491	0	567	38	9	
12	0	0	0	0	507	492	0	582	38	9	
13	0	0	0	0	508	492	0	577	39	9	
14	0	0	0	0	509	492	0	585	39	9	
15	0	0	0	0	504	493	0	604	39	9	
0	0	0	0	0	501	493	0	598	39	9	
1	0	0	0	0	501	493	0	579	39	9	
2	0	0	0	0	504	493	0	556	39	9	
3	0	0	0	0	505	493	0	538	38	9	
4	0	0	0	0	505	494	0	524	39	9	
5	0	0	0	0	505	494	0	515	39	9	
6	0	0	0	0	510	494	0	509	39	9	
7	0	0	0	0	508	493	0	505	39	9	
8	0	0	0	0	511	494	0	499	39	9	
9	0	0	0	0	508	494	0	497	39	9	
10	0	0	0	0	508	494	0	497	39	9	
11	0	0	0	0	506	494	0	498	38	9	
12	0	0	0	0	504	494	0	496	39	9	
13	0	0	0	0	506	495	0	491	38	9	
14	0	0	0	0	513	495	0	485	38	9	
15	0	0	0	0	512	496	0	481	39	9	
0	0	0	0	0	509	496	0	478	39	9	
1	0	0	0	0	503	497	0	478	38	9	
2	0	0	0	0	502	497	0	480	39	9	
3	0	0	0	0	510	497	0	483	38	9	
4	0	0	0	0	506	497	0	485	39	9	
5	0	0	0	0	509	497	0	486	38	9	
6	0	0	0	0	504	497	0	483	38	9	
7	0	0	0	0	512	498	0	483	39	9	
8	0	0	0	0	509	498	0	479	39	9	
9	0	0	0	0	508	499	0	480	39	9	
10	0	0	0	0	511	499	0	483	39	9	
11	0	0	0	0	502	498	0	485	39	9	
12	0	0	0	0	504	498	0	488	39	9	
13	0	0	0	0	507	499	0	485	39	9	
14	0	0	0	0	509	499	0	486	39	9	
15	0	0	0	0	509	499	0	481	39	9	
0	0	0	0	0	512	499	0	479	39	9	
1	0	0	0	0	506	499	0	479	39	9	
2	0	0	0	0	505	499	0	481	39	9	
3	0	0	0	0	508	499	0	485	39	9	
4	0	0	0	0	501	499	0	491	39	9	
5	0	0	0	0	507	499	0	494	39	9	
6	0	0	0	0	513	499	0	495	39	9	
7	0	0	0	0	515	499	0	496	39	9	
8	0	0	0	0	507	499	0	497	39	9	
9	0	0	0	0	501	500	0	499	39	9	
10	0	0	0	0	499	500	0	499	39	9	
11	0	0	0	0	504	500	0	500	39	9	
12	0	0	0	0	507	499	0	499	39	9	
13	0	0	0	0	509	500	0	498	39	9	
14	0	0	0	0	504	499	0	498	39	9	
15	0	0	0	0	504	500	0	500	39	9	
0	0	0	0	0	510	500	0	498	39	9	
1	0	0	0	0	508	500	0	500	38	9	
2	0	0	0	0	505	501	0	499	39	9	
3	0	0	0	0	503	501	0	501	39	9	
4	0	0	0	0	511	501	0	499	38	9	
5	0	0	0	0	511	501	0	500	38	9	
6	0	0	0	0	508	501	0	498	38	9	
7	0	0	0	0	507	501	0	499	38	9	
8	0	0	0	0	512	501	0	498	39	9	
9	0	0	0	0	506	501	0	500	38	9	
10	0	0	0	0	510	501	0	524	38	9	
11	0	0	0	0	508	501	0	556	38	9	
12	0	0	0	0	502	502	0	562	39	9	
13	0	0	0	0	500	501	0	553	38	9	
14	0	0	0	0	508	502	0	539	39	9	
15	0	0	0	0	512	502	0	525	38	9	
0	0	0	0	0	516	502	0	513	38	9	
1	0	0	0	0	509	502	0	507	38	9	
2	0	0	0	0	505	503	0	503	39	9	
3	0	0	0	0	515	503	0	501	39	9	
4	0	0	0	0	513	502	0	497	38	9	
5	0	0	0	0	505	502	0	498	39	9	
6	0	0	0	0	511	503	0	495	38	9	
7	0	0	0	0	511	502	0	497	38	9	
8	0	0	0	0	509	503	0	495	39	9	
9	0	0	0	0	504	502	0	497	38	9	
10	0	0	0	0	498	502	0	497	38	9	
11	0	0	0	0	502	502	0	497	39	9	
12	0	0	0	0	508	502	0	499	38	9	
13	0	0	0	0	510	503	0	499	39	9	
14	0	0	0	0	510	503	0	497	39	9	
15	0	0	0	0	511	503	0	497	38	9	
0	0	0	0	0	511	503	0	496	39	9	
1	0	0	0	0	507	503	0	497	38	9	
2	0	0	0	0	502	503	0	497	39	9	
3	0	0	0	0	511	503	0	498	39	9	
4	0	0	0	0	505	503	0	497	39	9	
5	0	0	0	0	506	504	0	497	39	9	
6	0	0	0	0	504	504	0	497	39	9	
7	0	0	0	0	506	505	0	497	39	9	
8	0	0	0	0	506	505	0	497	39	9	
9	0	0	0	0	508	504	0	496	38	9	
10	0	0	0	0	510	504	0	497	39	9	
11	0	0	0	0	515	504	0	496	38	9	
12	0	0	0	0	506	505	0	496	39	9	
13	0	0	0	0	511	506	0	497	39	9	
14	0	0	0	0	511	506	0	496	39	9	
15	0	0	0	0	509	506	0	497	39	9	
0	0	0	0	0	510	506	0	498	39	9	
1	0	0	0	0	503	506	0	499	39	9	
2	0	0	0	0	509	506	0	497	39	9	
3	0	0	0	0	509	505	0	496	39	9	
4	0	0	0	0	503	505	0	494	39	9	
5	0	0	0	0	503	505	0	496	39	9	
6	0	0	0	0	506	504	0	495	38	9	
7	0	0	0	0	514	504	0	497	39	9	
8	0	0	0	0	509	505	0	496	39	9	
9	0	0	0	0	511	505	0	496	39	9	
10	0	0	0	0	500	505	0	501	38	9	
11	0	0	0	0	509	505	0	528	39	9	
12	0	0	0	0	505	505	0	558	39	9	
13	0	0	0	0	504	505	0	559	38	9	
14	0	0	0	0	516	505	0	558	39	9	
15	0	0	0	0	508	505	0	575	39	9	
0	0	0	0	0	507	505	0	586	39	9	
1	0	0	0	0	507	505	0	572	39	9	
2	0	0	0	0	512	506	0	569	39	9	
3	0	0	0	0	509	506	0	584	39	9	
4	0	0	0	0	508	506	0	584	39	9	
5	0	0	0	0	505	506	0	569	39	9	
6	0	0	0	0	500	506	0	572	38	9	
7	0	0	0	0	506	506	0	588	39	9	
8	0	0	0	0	504	506	0	580	39	9	
9	0	0	0	0	504	506	0	561	39	9	
10	0	0	0	0	509	506	0	540	38	9	
11	0	0	0	0	511	505	0	523	38	9	
12	0	0	0	0	517	505	0	510	38	9	
13	0	0	0	0	510	506	0	503	38	9	
14	0	0	0	0	508	506	0	498	39	9	
15	0	0	0	0	504	506	0	496	39	9	
0	0	0	0	0	512	506	0	495	39	9	
1	0	0	0	0	509	505	0	494	39	9	
2	0	0	0	0	505	505	0	494	39	9	
3	0	0	0	0	501	505	0	494	38	9	
4	0	0	0	0	510	506	0	495	39	9	
5	0	0	0	0	509	506	0	496	39	9	
6	0	0	0	0	502	506	0	496	39	9	
7	0	0	0	0	505	506	0	498	39	9	
8	0	0	0	0	505	505	0	499	39	9	
9	0	0	0	0	506	505	0	498	39	9	
10	0	0	0	0	513	506	0	499	39	9	
11	0	0	0	0	507	506	0	497	39	9	
12	0	0	0	0	507	506	0	496	39	9	
13	0	0	0	0	508	507	0	498	39	9	
14	0	0	0	0	500	506	0	497	39	9	
15	0	0	0	0	507	507	0	498	39	9	
0	0	0	0	0	511	508	0	500	39	9	
1	0	0	0	0	504	508	0	498	39	9	
2	0	0	0	0	507	508	0	501	39	9	
3	0	0	0	0	505	508	0	501	39	9	
4	0	0	0	0	510	509	0	502	39	9	
5	0	0	0	0	511	510	0	501	39	9	
6	0	0	0	0	511	512	0	504	39	9	
7	0	0	0	0	509	513	0	504	39	9	
8	0	0	0	0	515	514	0	506	39	9	
9	0	0	0	0	509	515	0	505	39	9	
10	0	0	0	0	502	516	0	505	39	9	
11	0	0	0	0	507	517	0	516	39	9	
12	0	0	0	0	507	518	0	560	39	9	
13	0	0	0	0	502	519	0	573	39	9	
14	0	0	0	0	499	520	0	571	39	9	
15	0	0	0	0	508	521	0	575	39	9	
0	0	0	0	0	511	522	0	589	39	9	
1	0	0	0	0	500	523	0	588	39	9	
2	0	0	0	0	516	523	0	599	39	9	
3	0	0	0	0	510	524	0	600	39	9	
4	0	0	0	0	508	525	0	608	39	9	
5	0	0	0	0	510	525	0	606	39	9	
6	0	0	0	0	504	526	0	602	39	9	
7	0	0	0	0	502	526	0	606	39	9	
8	0	0	0	0	511	527	0	617	39	9	
9	0	0	0	0	512	527	0	582	39	9	
10	0	0	0	0	504	527	0	560	39	9	
11	0	0	0	0	501	527	0	539	39	9	
12	0	0	0	0	503	527	0	528	38	9	
13	0	0	0	0	503	527	0	515	38	9	
14	0	0	0	0	501	528	0	522	38	9	
15	0	0	0	0	510	528	0	505	39	9	
0	0	0	0	0	509	528	0	505	39	9	
1	0	0	0	0	513	528	0	503	39	9	
2	0	0	0	0	513	528	0	502	39	9	
3	0	0	0	0	504	528	0	499	39	9	
4	0	0	0	0	505	527	0	500	39	9	
5	0	0	0	0	507	528	0	501	39	9	
6	0	0	0	0	510	527	0	503	39	9	
7	0	0	0	0	507	527	0	502	39	9	
8	0	0	0	0	515	528	0	502	39	9	
9	0	0	0	0	502	527	0	501	39	9	
10	0	0	0	0	504	527	0	503	39	9	
11	0	0	0	0	505	527	0	502	38	9	
12	0	0	0	0	508	527	0	504	39	9	
13	0	0	0	0	505	527	0	505	39	9	
14	0	0	0	0	501	526	0	504	39	9	
15	0	0	0	0	515	526	0	505	39	9	
0	0	0	0	0	506	526	0	505	39	9	
1	0	0	0	0	510	526	0	504	39	9	
2	0	0	0	0	506	526	0	504	38	9	
3	0	0	0	0	511	526	0	503	39	9	
4	0	0	0	0	505	524	0	503	39	9	
5	0	0	0	0	504	524	0	504	39	9	
6	0	0	0	0	510	523	0	504	39	9	
7	0	0	0	0	505	522	0	504	39	9	
8	0	0	0	0	510	521	0	505	39	9	
9	0	0	0	0	505	520	0	505	38	9	
10	0	0	0	0	507	519	0	506	39	9	
11	0	0	0	0	504	519	0	507	39	9	
12	0	0	0	0	508	519	0	505	39	9	
13	0	0	0	0	511	518	0	505	39	9	
14	0	0	0	0	505	516	0	505	39	9	
15	0	0	0	0	511	516	0	507	39	9	
0	0	0	0	0	509	515	0	507	39	9	
1	0	0	0	0	506	513	0	507	39	9	
2	0	0	0	0	500	512	0	506	39	9	
3	0	0	0	0	505	511	0	506	39	9	
4	0	0	0	0	507	510	0	506	38	9	
5	0	0	0	0	507	508	0	507	39	9	
6	0	0	0	0	513	507	0	521	38	9	
7	0	0	0	0	506	506	0	540	38	9	
8	0	0	0	0	514	504	0	565	39	9	
9	0	0	0	0	505	503	0	568	39	9	
10	0	0	0	0	511	501	0	581	38	9	
11	0	0	0	0	507	501	0	584	39	9	
12	0	0	0	0	509	499	0	585	39	9	
13	0	0	0	0	511	499	0	591	39	9	
14	0	0	0	0	510	498	0	581	39	9	
15	0	0	0	0	508	497	0	584	39	9	
0	0	0	0	0	502	496	0	583	39	9	
1	0	0	0	0	505	496	0	579	38	9	
2	0	0	0	0	508	496	0	588	39	9	
3	0	0	0	0	510	495	0	579	39	9	
4	0	0	0	0	503	495	0	583	39	9	
5	0	0	0	0	510	495	0	579	39	9	
6	0	0	0	0	508	495	0	560	39	9	
7	0	0	0	0	508	494	0	539	39	9	
8	0	0	0	0	507	494	0	521	39	9	
9	0	0	0	0	504	494	0	507	39	9	
10	0	0	0	0	507	494	0	497	39	9	
11	0	0	0	0	510	494	0	503	39	9	
12	0	0	0	0	505	495	0	527	38	9	
13	0	0	0	0	508	495	0	534	39	9	
14	0	0	0	0	514	494	0	550	38	9	
15	0	0	0	0	505	494	0	562	38	9	
0	0	0	0	0	503	494	0	566	39	9	
1	0	0	0	0	509	495	0	578	39	9	
2	0	0	0	0	509	495	0	576	39	9	
3	0	0	0	0	507	496	0	579	39	9	
4	0	0	0	0	508	496	0	581	38	9	
5	0	0	0	0	504	495	0	576	39	9	
6	0	0	0	0	511	495	0	585	39	9	
7	0	0	0	0	509	496	0	576	39	9	
8	0	0	0	0	510	496	0	578	39	9	
9	0	0	0	0	507	496	0	578	39	9	
10	0	0	0	0	513	497	0	574	39	9	
11	0	0	0	0	507	496	0	577	39	9	
12	0	0	0	0	501	496	0	564	39	9	
13	0	0	0	0	508	497	0	541	38	9	
14	0	0	0	0	505	497	0	518	38	9	
15	0	0	0	0	510	497	0	501	39	9	
0	0	0	0	0	505	496	0	489	39	9	
1	0	0	0	0	508	496	0	481	39	9	
2	0	0	0	0	513	497	0	477	38	9	
3	0	0	0	0	502	498	0	472	39	9	
4	0	0	0	0	514	498	0	472	39	9	
5	0	0	0	0	504	498	0	472	39	9	
6	0	0	0	0	508	498	0	472	39	9	
7	0	0	0	0	507	498	0	472	38	9	
8	0	0	0	0	507	499	0	472	39	9	
9	0	0	0	0	511	498	0	480	39	9	
10	0	0	0	0	507	498	0	509	39	9	
11	0	0	0	0	512	499	0	524	39	9	
12	0	0	0	0	507	499	0	543	38	9	
13	0	0	0	0	510	499	0	559	38	9	
14	0	0	0	0	504	499	0	562	38	9	
15	0	0	0	0	512	499	0	575	38	9	
0	0	0	0	0	502	499	0	572	39	9	
1	0	0	0	0	507	499	0	576	38	9	
2	0	0	0	0	508	499	0	574	39	9	
3	0	0	0	0	505	500	0	568	38	9	
4	0	0	0	0	502	501	0	577	39	9	
5	0	0	0	0	508	501	0	572	39	9	
6	0	0	0	0	503	501	0	575	39	9	
7	0	0	0	0	509	500	0	575	38	9	
8	0	0	0	0	507	501	0	570	39	9	
9	0	0	0	0	509	500	0	576	38	9	
10	0	0	0	0	501	500	0	571	38	9	
11	0	0	0	0	515	501	0	573	38	9	
12	0	0	0	0	508	501	0	573	38	9	
13	0	0	0	0	504	501	0	567	38	9	
14	0	0	0	0	508	501	0	572	39	9	
15	0	0	0	0	504	501	0	559	39	9	
0	0	0	0	0	502	501	0	558	39	9	
1	0	0	0	0	508	501	0	554	39	9	
2	0	0	0	0	510	501	0	548	38	9	
3	0	0	0	0	505	501	0	558	39	9	
4	0	0	0	0	511	501	0	551	39	9	
5	0	0	0	0	508	501	0	560	38	9	
6	0	0	0	0	514	501	0	555	39	9	
7	0	0	0	0	511	501	0	552	39	9	
8	0	0	0	0	512	501	0	557	39	9	
9	0	0	0	0	508	502	0	550	39	9	
10	0	0	0	0	502	502	0	552	38	9	
11	0	0	0	0	508	502	0	551	38	9	
12	0	0	0	0	508	502	0	547	38	9	
13	0	0	0	0	510	502	0	554	39	9	
14	0	0	0	0	508	502	0	547	39	9	
15	0	0	0	0	508	502	0	554	39	9	
0	0	0	0	0	506	501	0	552	39	9	
1	0	0	0	0	499	500	0	535	39	9	
2	0	0	0	0	512	498	0	523	39	9	
3	0	0	0	0	512	495	0	533	39	9	
4	0	0	0	0	510	493	0	535	39	9	
5	0	0	0	0	511	490	0	541	39	9	
6	0	0	0	0	502	487	0	547	39	9	
7	0	0	0	0	512	484	0	540	39	9	
8	0	0	0	0	508	481	0	548	39	9	
9	0	0	0	0	507	477	0	544	39	9	
10	0	0	0	0	505	473	0	537	39	9	
11	0	0	0	0	518	471	0	524	39	9	
12	0	0	0	0	501	470	0	508	39	9	
13	0	0	0	0	509	473	0	494	39	9	
14	0	0	0	0	505	479	0	484	39	9	
15	0	0	0	0	499	486	0	475	38	9	
0	0	0	0	0	508	494	0	482	39	9	
1	0	0	0	0	505	503	0	503	38	9	
2	0	0	0	0	512	512	0	509	39	9	
3	0	0	0	0	508	521	0	514	39	9	
4	0	0	0	0	507	532	0	509	39	9	
5	0	0	0	0	504	542	0	499	39	9	
6	0	0	0	0	503	552	0	491	39	9	
7	0	0	0	0	501	563	0	483	39	9	
8	0	0	0	0	508	574	0	478	39	9	
9	0	0	0	0	509	585	0	472	39	9	
10	0	0	0	0	505	596	0	470	39	9	
11	0	0	0	0	509	607	0	466	39	9	
12	0	0	0	0	510	616	0	467	38	9	
13	0	0	0	0	506	627	0	467	38	9	
14	0	0	0	0	502	637	0	468	38	9	
15	0	0	0	0	517	647	0	467	39	9	
0	0	0	0	0	500	656	0	463	39	9	
1	0	0	0	0	502	667	0	459	38	9	
2	0	0	0	0	513	677	0	458	39	9	
3	0	0	0	0	511	686	0	459	38	9	
4	0	0	0	0	509	692	0	463	39	9	
5	0	0	0	0	508	696	0	465	38	9	
6	0	0	0	0	511	699	0	468	39	9	
7	0	0	0	0	509	700	0	469	38	9	
8	0	0	0	0	516	698	0	469	39	9	
9	0	0	0	0	500	693	0	466	39	9	
10	0	0	0	0	504	685	0	467	39	9	
11	0	0	0	0	506	675	0	469	39	9	
12	0	0	0	0	512	664	0	472	39	9	
13	0	0	0	0	502	651	0	474	39	9	
14	0	0	0	0	504	638	0	476	39	9	
15	0	0	0	0	510	624	0	476	39	9	
0	0	0	0	0	515	611	0	473	39	9	
1	0	0	0	0	508	597	0	469	38	9	
2	0	0	0	0	506	582	0	469	39	9	
3	0	0	0	0	508	568	0	472	38	9	
4	0	0	0	0	513	555	0	477	39	9	
5	0	0	0	0	504	540	0	480	39	9	
6	0	0	0	0	508	525	0	482	39	9	
7	0	0	0	0	510	511	0	483	39	9	
8	0	0	0	0	509	497	0	481	39	9	
9	0	0	0	0	513	483	0	478	39	9	
10	0	0	0	0	506	470	0	481	39	9	
11	0	0	0	0	509	457	0	482	39	9	
12	0	0	0	0	506	443	0	504	39	9	
13	0	0	0	0	500	429	0	527	39	9	
14	0	0	0	0	510	417	0	537	39	9	
15	0	0	0	0	508	404	0	557	39	9	
0	0	0	0	0	506	396	0	557	39	9	
1	0	0	0	0	507	393	0	559	39	9	
2	0	0	0	0	508	393	0	566	39	9	
3	0	0	0	0	502	395	0	555	39	9	
4	0	0	0	0	507	398	0	538	39	9	
5	0	0	0	0	511	403	0	520	39	9	
6	0	0	0	0	504	409	0	526	39	9	
7	0	0	0	0	504	415	0	536	39	9	
8	0	0	0	0	510	422	0	537	39	9	
9	0	0	0	0	512	429	0	553	39	9	
10	0	0	0	0	501	437	0	553	39	9	
11	0	0	0	0	513	445	0	539	39	9	
12	0	0	0	0	505	451	0	524	39	9	
13	0	0	0	0	511	455	0	511	39	9	
14	0	0	0	0	505	460	0	501	39	9	
15	0	0	0	0	518	463	0	490	39	9	
0	0	0	0	0	507	465	0	483	39	9	
1	0	0	0	0	502	467	0	477	39	9	
2	0	0	0	0	504	469	0	477	39	9	
3	0	0	0	0	512	471	0	478	39	9	
4	0	0	0	0	513	471	0	480	39	9	
5	0	0	0	0	503	472	0	482	39	9	
6	0	0	0	0	513	473	0	484	39	9	
7	0	0	0	0	500	474	0	481	39	9	
8	0	0	0	0	508	474	0	480	39	9	
9	0	0	0	0	506	475	0	476	39	9	
10	0	0	0	0	507	476	0	477	39	9	
11	0	0	0	0	506	476	0	480	39	9	
12	0	0	0	0	511	477	0	482	39	9	
13	0	0	0	0	510	477	0	484	38	9	
14	0	0	0	0	508	478	0	484	38	9	
15	0	0	0	0	509	478	0	483	39	9	
0	0	0	0	0	504	479	0	481	39	9	
1	0	0	0	0	508	479	0	481	39	9	
2	0	0	0	0	512	479	0	481	39	9	
3	0	0	0	0	509	480	0	486	38	9	
4	0	0	0	0	507	480	0	485	39	9	
5	0	0	0	0	507	480	0	492	38	9	
6	0	0	0	0	505	481	0	491	38	9	
7	0	0	0	0	510	481	0	490	39	9	
8	0	0	0	0	508	483	0	485	39	9	
9	0	0	0	0	512	483	0	482	39	9	
10	0	0	0	0	514	484	0	481	39	9	
11	0	0	0	0	506	485	0	483	39	9	
12	0	0	0	0	510	485	0	484	38	9	
13	0	0	0	0	495	485	0	486	38	9	
14	0	0	0	0	504	485	0	485	39	9	
15	0	0	0	0	510	485	0	499	39	9	
0	0	0	0	0	506	486	0	522	39	9	
1	0	0	0	0	500	487	0	532	39	9	
2	0	0	0	0	510	487	0	550	39	9	
3	0	0	0	0	511	487	0	560	39	9	
4	0	0	0	0	508	488	0	551	39	9	
5	0	0	0	0	507	489	0	537	39	9	
6	0	0	0	0	503	489	0	522	39	9	
7	0	0	0	0	510	490	0	507	39	9	
8	0	0	0	0	512	491	0	494	39	9	
9	0	0	0	0	509	491	0	497	38	9	
10	0	0	0	0	508	491	0	520	39	9	
11	0	0	0	0	506	491	0	528	39	9	
12	0	0	0	0	509	491	0	524	39	9	
13	0	0	0	0	510	491	0	516	39	9	
14	0	0	0	0	505	492	0	507	39	9	
15	0	0	0	0	504	492	0	500	39	9	
0	0	0	0	0	510	493	0	492	39	9	
1	0	0	0	0	509	493	0	485	39	9	
2	0	0	0	0	512	494	0	482	39	9	
3	0	0	0	0	507	495	0	484	39	9	
4	0	0	0	0	502	495	0	484	39	9	
5	0	0	0	0	512	495	0	489	39	9	
6	0	0	0	0	510	495	0	509	39	9	
7	0	0	0	0	512	496	0	523	39	9	
8	0	0	0	0	512	496	0	528	39	9	
9	0	0	0	0	505	497	0	547	39	9	
10	0	0	0	0	505	498	0	548	39	9	
11	0	0	0	0	511	498	0	559	39	9	
12	0	0	0	0	509	498	0	561	39	9	
13	0	0	0	0	505	499	0	561	39	9	
14	0	0	0	0	507	499	0	569	39	9	
15	0	0	0	0	502	499	0	561	39	9	
0	0	0	0	0	504	500	0	563	39	9	
1	0	0	0	0	509	501	0	558	39	9	
2	0	0	0	0	510	502	0	553	39	9	
3	0	0	0	0	509	502	0	562	39	9	
4	0	0	0	0	510	503	0	551	39	9	
5	0	0	0	0	500	504	0	534	39	9	
6	0	0	0	0	508	504	0	513	39	9	
7	0	0	0	0	508	504	0	496	39	9	
8	0	0	0	0	507	504	0	482	39	9	
9	0	0	0	0	511	504	0	471	39	9	
10	0	0	0	0	500	505	0	464	39	9	
11	0	0	0	0	508	505	0	463	39	9	
12	0	0	0	0	507	505	0	463	38	9	
13	0	0	0	0	512	505	0	464	39	9	
14	0	0	0	0	513	505	0	466	39	9	
15	0	0	0	0	508	505	0	465	39	9	
0	0	0	0	0	502	506	0	463	39	9	
1	0	0	0	0	499	506	0	460	39	9	
2	0	0	0	0	503	506	0	460	39	9	
3	0	0	0	0	507	507	0	464	39	9	
4	0	0	0	0	514	508	0	466	39	9	
5	0	0	0	0	511	508	0	468	39	9	
6	0	0	0	0	510	508	0	471	39	9	
7	0	0	0	0	505	508	0	471	39	9	
8	0	0	0	0	508	509	0	472	39	9	
9	0	0	0	0	507	509	0	470	38	9	
10	0	0	0	0	501	509	0	470	39	9	
11	0	0	0	0	502	510	0	470	39	9	
12	0	0	0	0	509	510	0	473	39	9	
13	0	0	0	0	509	510	0	475	39	9	
14	0	0	0	0	516	510	0	477	38	9	
15	0	0	0	0	514	510	0	475	38	9	
0	0	0	0	0	506	511	0	472	39	9	
1	0	0	0	0	505	511	0	467	39	9	
2	0	0	0	0	504	511	0	467	39	9	
3	0	0	0	0	504	512	0	469	39	9	
4	0	0	0	0	513	512	0	475	38	9	
5	0	0	0	0	508	513	0	474	38	9	
6	0	0	0	0	507	513	0	475	39	9	
7	0	0	0	0	507	513	0	475	38	9	
8	0	0	0	0	512	513	0	486	39	9	
9	0	0	0	0	504	513	0	471	38	9	
10	0	0	0	0	508	513	0	484	39	9	
11	0	0	0	0	514	514	0	512	38	9	
12	0	0	0	0	505	514	0	524	39	9	
13	0	0	0	0	505	514	0	542	38	9	
14	0	0	0	0	510	515	0	547	38	9	
15	0	0	0	0	504	515	0	533	38	9	
0	0	0	0	0	504	515	0	514	39	9	
1	0	0	0	0	510	516	0	494	38	9	
2	0	0	0	0	504	516	0	483	39	9	
3	0	0	0	0	507	516	0	478	39	9	
4	0	0	0	0	507	517	0	475	39	9	
5	0	0	0	0	504	517	0	472	39	9	
6	0	0	0	0	506	517	0	473	38	9	
7	0	0	0	0	512	517	0	470	38	9	
8	0	0	0	0	509	517	0	468	39	9	
9	0	0	0	0	512	517	0	466	39	9	
10	0	0	0	0	509	518	0	469	39	9	
11	0	0	0	0	504	517	0	474	39	9	
12	0	0	0	0	510	518	0	475	39	9	
13	0	0	0	0	510	518	0	496	39	9	
14	0	0	0	0	510	518	0	514	39	9	
15	0	0	0	0	503	518	0	523	38	9	
0	0	0	0	0	507	519	0	536	39	9	
1	0	0	0	0	509	519	0	536	39	9	
2	0	0	0	0	510	519	0	522	38	9	
3	0	0	0	0	513	519	0	511	39	9	
4	0	0	0	0	506	519	0	497	39	9	
5	0	0	0	0	505	519	0	490	39	9	
6	0	0	0	0	504	519	0	481	39	9	
7	0	0	0	0	511	519	0	477	39	9	
8	0	0	0	0	508	519	0	467	39	9	
9	0	0	0	0	510	519	0	460	39	9	
10	0	0	0	0	512	519	0	461	39	9	
11	0	0	0	0	511	519	0	464	39	9	
12	0	0	0	0	505	520	0	467	38	9	
13	0	0	0	0	508	520	0	470	39	9	
14	0	0	0	0	504	520	0	473	39	9	
15	0	0	0	0	505	520	0	472	39	9	
0	0	0	0	0	502	521	0	468	39	9	
1	0	0	0	0	511	521	0	468	39	9	
2	0	0	0	0	502	521	0	470	39	9	
3	0	0	0	0	506	521	0	472	39	9	
4	0	0	0	0	502	521	0	473	39	9	
5	0	0	0	0	507	521	0	471	39	9	
6	0	0	0	0	516	521	0	487	39	9	
7	0	0	0	0	504	522	0	512	39	9	
8	0	0	0	0	505	522	0	524	39	9	
9	0	0	0	0	510	521	0	547	39	9	
10	0	0	0	0	503	521	0	552	39	9	
11	0	0	0	0	510	521	0	542	39	9	
12	0	0	0	0	509	521	0	525	38	9	
13	0	0	0	0	508	521	0	512	39	9	
14	0	0	0	0	511	521	0	501	39	9	
15	0	0	0	0	510	522	0	489	39	9	
0	0	0	0	0	511	521	0	480	39	9	
1	0	0	0	0	511	522	0	483	38	9	
2	0	0	0	0	504	523	0	509	38	9	
3	0	0	0	0	507	523	0	516	39	9	
4	0	0	0	0	510	524	0	536	38	9	
5	0	0	0	0	507	524	0	544	38	9	
6	0	0	0	0	508	525	0	550	39	9	
7	0	0	0	0	500	526	0	559	38	9	
8	0	0	0	0	502	527	0	555	39	9	
9	0	0	0	0	510	527	0	559	39	9	
10	0	0	0	0	504	527	0	559	39	9	
11	0	0	0	0	502	528	0	555	39	9	
12	0	0	0	0	509	529	0	564	39	9	
13	0	0	0	0	515	530	0	556	39	9	
14	0	0	0	0	506	531	0	563	39	9	
15	0	0	0	0	507	531	0	559	39	9	
0	0	0	0	0	506	531	0	567	39	9	
1	0	0	0	0	510	532	0	560	39	9	
2	0	0	0	0	505	532	0	555	39	9	
3	0	0	0	0	510	532	0	533	39	9	
4	0	0	0	0	515	533	0	517	39	9	
5	0	0	0	0	507	532	0	500	39	9	
6	0	0	0	0	515	533	0	495	38	9	
7	0	0	0	0	509	533	0	486	38	9	
8	0	0	0	0	505	534	0	481	39	9	
9	0	0	0	0	504	535	0	473	38	9	
10	0	0	0	0	513	535	0	475	39	9	
11	0	0	0	0	506	536	0	473	38	9	
12	0	0	0	0	504	535	0	475	38	9	
13	0	0	0	0	505	535	0	477	38	9	
14	0	0	0	0	507	535	0	477	39	9	
15	0	0	0	0	508	535	0	477	38	9	
0	0	0	0	0	506	535	0	475	39	9	
1	0	0	0	0	498	534	0	473	39	9	
2	0	0	0	0	501	534	0	472	39	9	
3	0	0	0	0	508	533	0	473	38	9	
4	0	0	0	0	508	531	0	476	39	9	
5	0	0	0	0	509	530	0	480	39	9	
6	0	0	0	0	506	529	0	483	39	9	
7	0	0	0	0	517	527	0	480	38	9	
8	0	0	0	0	507	527	0	479	39	9	
9	0	0	0	0	513	526	0	484	39	9	
10	0	0	0	0	515	524	0	515	39	9	
11	0	0	0	0	497	523	0	524	39	9	
12	0	0	0	0	511	521	0	544	39	9	
13	0	0	0	0	508	520	0	550	39	9	
14	0	0	0	0	504	518	0	540	39	9	
15	0	0	0	0	506	517	0	523	39	9	
0	0	0	0	0	508	516	0	504	39	9	
1	0	0	0	0	511	515	0	489	39	9	
2	0	0	0	0	512	514	0	498	38	9	
3	0	0	0	0	505	513	0	515	39	9	
4	0	0	0	0	508	513	0	522	39	9	
5	0	0	0	0	511	512	0	542	39	9	
6	0	0	0	0	507	511	0	547	39	9	
7	0	0	0	0	508	510	0	553	39	9	
8	0	0	0	0	499	510	0	558	39	9	
9	0	0	0	0	512	509	0	549	39	9	
10	0	0	0	0	511	509	0	559	39	9	
11	0	0	0	0	508	508	0	556	38	9	
12	0	0	0	0	506	507	0	557	39	9	
13	0	0	0	0	505	506	0	562	39	9	
14	0	0	0	0	507	505	0	549	39	9	
15	0	0	0	0	508	504	0	529	39	9	
0	0	0	0	0	505	504	0	508	39	9	
1	0	0	0	0	515	503	0	489	39	9	
2	0	0	0	0	506	502	0	492	39	9	
3	0	0	0	0	508	500	0	513	39	9	
4	0	0	0	0	511	499	0	520	39	9	
5	0	0	0	0	507	496	0	536	39	9	
6	0	0	0	0	509	493	0	546	39	9	
7	0	0	0	0	503	491	0	532	39	9	
8	0	0	0	0	497	488	0	513	39	9	
9	0	0	0	0	508	486	0	495	39	9	
10	0	0	0	0	510	484	0	484	39	9	
11	0	0	0	0	507	482	0	479	38	9	
12	0	0	0	0	511	480	0	476	39	9	
13	0	0	0	0	499	478	0	475	39	9	
14	0	0	0	0	502	476	0	475	39	9	
15	0	0	0	0	507	474	0	472	39	9	
0	0	0	0	0	511	473	0	468	39	9	
1	0	0	0	0	512	472	0	466	39	9	
2	0	0	0	0	504	471	0	467	39	9	
3	0	0	0	0	505	470	0	470	39	9	
4	0	0	0	0	503	468	0	471	39	9	
5	0	0	0	0	508	467	0	471	39	9	
6	0	0	0	0	511	467	0	473	39	9	
7	0	0	0	0	505	467	0	472	39	9	
8	0	0	0	0	511	467	0	471	39	9	
9	0	0	0	0	510	466	0	467	39	9	
10	0	0	0	0	507	466	0	468	39	9	
11	0	0	0	0	515	465	0	470	39	9	
12	0	0	0	0	504	464	0	472	38	9	
13	0	0	0	0	505	464	0	473	38	9	
14	0	0	0	0	512	464	0	475	39	9	
15	0	0	0	0	511	463	0	473	39	9	
0	0	0	0	0	503	463	0	469	39	9	
1	0	0	0	0	504	463	0	466	39	9	
2	0	0	0	0	510	463	0	465	39	9	
3	0	0	0	0	500	463	0	468	39	9	
4	0	0	0	0	504	463	0	468	39	9	
5	0	0	0	0	514	463	0	472	39	9	
6	0	0	0	0	509	463	0	473	38	9	
7	0	0	0	0	508	463	0	472	38	9	
8	0	0	0	0	504	464	0	469	39	9	
9	0	0	0	0	505	464	0	469	38	9	
10	0	0	0	0	513	465	0	468	39	9	
11	0	0	0	0	509	466	0	472	39	9	
12	0	0	0	0	501	466	0	472	39	9	
13	0	0	0	0	507	467	0	478	39	9	
14	0	0	0	0	507	468	0	476	39	9	
15	0	0	0	0	513	468	0	476	39	9	
0	0	0	0	0	512	469	0	467	39	9	
1	0	0	0	0	507	470	0	466	39	9	
2	0	0	0	0	505	470	0	462	38	9	
3	0	0	0	0	500	470	0	487	39	9	
4	0	0	0	0	505	470	0	506	39	9	
5	0	0	0	0	514	470	0	522	38	9	
6	0	0	0	0	511	471	0	536	39	9	
7	0	0	0	0	507	471	0	539	39	9	
8	0	0	0	0	507	472	0	536	39	9	
9	0	0	0	0	504	472	0	548	39	9	
10	0	0	0	0	511	472	0	542	39	9	
11	0	0	0	0	500	472	0	554	38	9	
12	0	0	0	0	500	473	0	547	39	9	
13	0	0	0	0	512	473	0	548	39	9	
14	0	0	0	0	509	473	0	551	39	9	
15	0	0	0	0	506	473	0	545	38	9	
0	0	0	0	0	513	474	0	549	39	9	
1	0	0	0	0	511	475	0	547	39	9	
2	0	0	0	0	511	475	0	545	39	9	
3	0	0	0	0	504	475	0	551	39	9	
4	0	0	0	0	508	475	0	542	39	9	
5	0	0	0	0	501	476	0	552	39	9	
6	0	0	0	0	504	477	0	547	39	9	
7	0	0	0	0	507	477	0	527	39	9	
8	0	0	0	0	508	478	0	503	39	9	
9	0	0	0	0	505	478	0	485	39	9	
10	0	0	0	0	508	478	0	473	39	9	
11	0	0	0	0	504	478	0	467	39	9	
12	0	0	0	0	508	479	0	461	39	9	
13	0	0	0	0	514	479	0	461	39	9	
14	0	0	0	0	505	480	0	457	39	9	
15	0	0	0	0	506	480	0	455	39	9	
0	0	0	0	0	512	480	0	449	39	9	
1	0	0	0	0	503	480	0	449	39	9	
2	0	0	0	0	508	480	0	447	39	9	
3	0	0	0	0	516	480	0	458	39	9	
4	0	0	0	0	508	480	0	483	39	9	
5	0	0	0	0	509	481	0	499	39	9	
6	0	0	0	0	510	481	0	512	39	9	
7	0	0	0	0	511	481	0	525	39	9	
8	0	0	0	0	503	482	0	516	39	9	
9	0	0	0	0	504	482	0	500	39	9	
10	0	0	0	0	504	482	0	486	39	9	
11	0	0	0	0	504	483	0	476	39	9	
12	0	0	0	0	510	483	0	469	39	9	
13	0	0	0	0	508	483	0	463	39	9	
14	0	0	0	0	511	483	0	460	39	9	
15	0	0	0	0	509	483	0	458	39	9	
0	0	0	0	0	512	484	0	455	39	9	
1	0	0	0	0	504	484	0	455	39	9	
2	0	0	0	0	510	484	0	456	38	9	
3	0	0	0	0	507	485	0	461	39	9	
4	0	0	0	0	501	485	0	464	38	9	
5	0	0	0	0	510	485	0	484	38	9	
6	0	0	0	0	510	486	0	508	39	9	
7	0	0	0	0	514	486	0	518	39	9	
8	0	0	0	0	496	486	0	536	39	9	
9	0	0	0	0	504	486	0	534	39	9	
10	0	0	0	0	512	487	0	523	38	9	
11	0	0	0	0	504	487	0	507	38	9	
12	0	0	0	0	512	487	0	498	39	9	
13	0	0	0	0	506	487	0	487	38	9	
14	0	0	0	0	515	487	0	481	38	9	
15	0	0	0	0	509	488	0	473	38	9	
0	0	0	0	0	512	488	0	470	39	9	
1	0	0	0	0	514	488	0	463	39	9	
2	0	0	0	0	512	488	0	463	39	9	
3	0	0	0	0	505	488	0	465	39	9	
4	0	0	0	0	501	489	0	468	38	9	
5	0	0	0	0	504	489	0	471	38	9	
6	0	0	0	0	500	489	0	475	38	9	
7	0	0	0	0	512	490	0	474	38	9	
8	0	0	0	0	506	490	0	497	39	9	
9	0	0	0	0	512	490	0	512	38	9	
10	0	0	0	0	506	490	0	528	38	9	
11	0	0	0	0	510	491	0	544	39	9	
12	0	0	0	0	506	491	0	547	39	9	
13	0	0	0	0	505	491	0	556	38	9	
14	0	0	0	0	511	491	0	561	39	9	
15	0	0	0	0	507	491	0	560	38	9	
0	0	0	0	0	507	492	0	571	39	9	
1	0	0	0	0	511	491	0	563	38	9	
2	0	0	0	0	509	492	0	569	38	9	
3	0	0	0	0	508	492	0	566	38	9	
4	0	0	0	0	501	492	0	563	39	9	
5	0	0	0	0	508	492	0	571	39	9	
6	0	0	0	0	510	492	0	563	39	9	
7	0	0	0	0	506	493	0	542	38	9	
8	0	0	0	0	508	494	0	518	39	9	
9	0	0	0	0	511	494	0	500	39	9	
10	0	0	0	0	508	494	0	492	39	9	
11	0	0	0	0	507	494	0	489	39	9	
12	0	0	0	0	505	494	0	487	39	9	
13	0	0	0	0	512	495	0	486	39	9	
14	0	0	0	0	506	494	0	484	39	9	
15	0	0	0	0	508	494	0	483	39	9	
0	0	0	0	0	505	495	0	481	39	9	
1	0	0	0	0	505	495	0	477	39	9	
2	0	0	0	0	508	495	0	476	39	9	
3	0	0	0	0	504	495	0	480	39	9	
4	0	0	0	0	506	496	0	483	39	9	
5	0	0	0	0	515	496	0	485	39	9	
6	0	0	0	0	508	496	0	487	39	9	
7	0	0	0	0	509	496	0	487	39	9	
8	0	0	0	0	508	497	0	484	39	9	
9	0	0	0	0	509	496	0	485	39	9	
10	0	0	0	0	503	496	0	513	39	9	
11	0	0	0	0	507	496	0	526	39	9	
12	0	0	0	0	507	496	0	545	39	9	
13	0	0	0	0	504	497	0	559	39	9	
14	0	0	0	0	510	497	0	561	39	9	
15	0	0	0	0	508	497	0	572	39	9	
0	0	0	0	0	510	496	0	570	39	9	
1	0	0	0	0	510	496	0	569	39	9	
2	0	0	0	0	508	497	0	574	39	9	
3	0	0	0	0	504	497	0	567	39	9	
4	0	0	0	0	509	496	0	577	39	9	
5	0	0	0	0	508	497	0	572	39	9	
6	0	0	0	0	508	497	0	574	39	9	
7	0	0	0	0	515	497	0	572	39	9	
8	0	0	0	0	500	497	0	559	39	9	
9	0	0	0	0	504	498	0	546	39	9	
10	0	0	0	0	502	498	0	533	39	9	
11	0	0	0	0	508	499	0	518	39	9	
12	0	0	0	0	507	499	0	511	39	9	
13	0	0	0	0	505	498	0	503	39	9	
14	0	0	0	0	513	498	0	501	39	9	
15	0	0	0	0	513	498	0	496	38	9	
0	0	0	0	0	507	499	0	493	39	9	
1	0	0	0	0	507	499	0	488	39	9	
2	0	0	0	0	511	499	0	490	38	9	
3	0	0	0	0	510	499	0	490	39	9	
4	0	0	0	0	509	499	0	494	39	9	
5	0	0	0	0	507	500	0	494	39	9	
6	0	0	0	0	510	500	0	499	39	9	
7	0	0	0	0	508	500	0	496	39	9	
8	0	0	0	0	505	500	0	496	39	9	
9	0	0	0	0	504	500	0	490	38	9	
10	0	0	0	0	502	500	0	492	38	9	
11	0	0	0	0	508	500	0	492	39	9	
12	0	0	0	0	514	501	0	495	39	9	
13	0	0	0	0	508	500	0	497	39	9	
14	0	0	0	0	508	502	0	499	39	9	
15	0	0	0	0	507	501	0	496	38	9	
0	0	0	0	0	498	501	0	494	39	9	
1	0	0	0	0	503	501	0	492	38	9	
2	0	0	0	0	511	501	0	492	38	9	
3	0	0	0	0	508	501	0	495	39	9	
4	0	0	0	0	508	501	0	495	39	9	
5	0	0	0	0	515	502	0	508	39	9	
6	0	0	0	0	507	502	0	536	39	9	
7	0	0	0	0	508	502	0	542	39	9	
8	0	0	0	0	512	502	0	558	39	9	
9	0	0	0	0	508	502	0	565	38	9	
10	0	0	0	0	506	502	0	569	39	9	
11	0	0	0	0	509	503	0	580	38	9	
12	0	0	0	0	508	503	0	573	39	9	
13	0	0	0	0	506	502	0	579	38	9	
14	0	0	0	0	513	503	0	576	39	9	
15	0	0	0	0	507	503	0	570	39	9	
0	0	0	0	0	507	503	0	571	39	9	
1	0	0	0	0	501	503	0	557	38	9	
2	0	0	0	0	513	503	0	539	39	9	
3	0	0	0	0	511	503	0	542	39	9	
4	0	0	0	0	503	503	0	550	39	9	
5	0	0	0	0	507	503	0	550	39	9	
6	0	0	0	0	511	503	0	563	39	9	
7	0	0	0	0	508	504	0	563	39	9	
8	0	0	0	0	513	504	0	565	39	9	
9	0	0	0	0	508	504	0	569	39	9	
10	0	0	0	0	509	504	0	563	39	9	
11	0	0	0	0	503	504	0	574	39	9	
12	0	0	0	0	511	504	0	568	39	9	
13	0	0	0	0	512	504	0	562	39	9	
14	0	0	0	0	513	505	0	559	39	9	
15	0	0	0	0	502	505	0	568	39	9	
0	0	0	0	0	509	505	0	560	39	9	
1	0	0	0	0	501	505	0	554	39	9	
2	0	0	0	0	509	505	0	539	38	9	
3	0	0	0	0	511	506	0	524	39	9	
4	0	0	0	0	513	506	0	513	39	9	
5	0	0	0	0	509	506	0	503	39	9	
6	0	0	0	0	507	506	0	496	39	9	
7	0	0	0	0	508	505	0	490	39	9	
8	0	0	0	0	498	506	0	485	39	9	
9	0	0	0	0	503	507	0	480	39	9	
10	0	0	0	0	507	507	0	479	39	9	
11	0	0	0	0	506	507	0	479	39	9	
12	0	0	0	0	511	506	0	479	39	9	
13	0	0	0	0	510	506	0	487	39	9	
14	0	0	0	0	508	505	0	483	39	9	
15	0	0	0	0	510	505	0	494	39	9	
0	0	0	0	0	510	505	0	480	39	9	
1	0	0	0	0	507	505	0	490	38	9	
2	0	0	0	0	506	505	0	480	39	9	
3	0	0	0	0	512	505	0	482	38	9	
4	0	0	0	0	512	505	0	482	38	9	
5	0	0	0	0	504	504	0	482	38	9	
6	0	0	0	0	508	504	0	480	38	9	
7	0	0	0	0	507	504	0	480	39	9	
8	0	0	0	0	511	504	0	477	39	9	
9	0	0	0	0	508	505	0	474	38	9	
10	0	0	0	0	503	505	0	473	38	9	
11	0	0	0	0	514	505	0	475	38	9	
12	0	0	0	0	505	505	0	476	39	9	
13	0	0	0	0	500	505	0	485	39	9	
14	0	0	0	0	504	505	0	513	38	9	
15	0	0	0	0	508	505	0	523	39	9	
0	0	0	0	0	507	505	0	535	39	9	
1	0	0	0	0	510	504	0	545	39	9	
2	0	0	0	0	514	505	0	545	39	9	
3	0	0	0	0	511	505	0	560	39	9	
4	0	0	0	0	503	505	0	560	39	9	
5	0	0	0	0	504	505	0	564	38	9	
6	0	0	0	0	508	505	0	566	39	9	
7	0	0	0	0	510	505	0	564	39	9	
8	0	0	0	0	504	505	0	561	39	9	
9	0	0	0	0	502	506	0	555	39	9	
10	0	0	0	0	511	506	0	552	39	9	
11	0	0	0	0	505	506	0	560	39	9	
12	0	0	0	0	512	506	0	551	39	9	
13	0	0	0	0	508	506	0	545	39	9	
14	0	0	0	0	505	506	0	550	39	9	
15	0	0	0	0	505	507	0	545	39	9	
0	0	0	0	0	512	506	0	539	39	9	
1	0	0	0	0	511	506	0	527	39	9	
2	0	0	0	0	498	506	0	515	39	9	
3	0	0	0	0	510	507	0	503	39	9	
4	0	0	0	0	508	507	0	493	39	9	
5	0	0	0	0	507	507	0	487	39	9	
6	0	0	0	0	505	507	0	485	38	9	
7	0	0	0	0	512	507	0	483	38	9	
8	0	0	0	0	504	506	0	476	39	9	
9	0	0	0	0	511	507	0	472	39	9	
10	0	0	0	0	508	507	0	470	39	9	
11	0	0	0	0	508	507	0	470	39	9	
12	0	0	0	0	504	508	0	471	39	9	
13	0	0	0	0	512	508	0	471	39	9	
14	0	0	0	0	502	509	0	471	39	9	
15	0	0	0	0	502	510	0	471	39	9	
0	0	0	0	0	508	511	0	467	39	9	
1	0	0	0	0	508	512	0	464	39	9	
2	0	0	0	0	507	513	0	468	39	9	
3	0	0	0	0	511	514	0	465	39	9	
4	0	0	0	0	499	515	0	466	39	9	
5	0	0	0	0	506	516	0	469	39	9	
6	0	0	0	0	512	517	0	472	39	9	
7	0	0	0	0	508	518	0	472	39	9	
8	0	0	0	0	507	519	0	471	39	9	
9	0	0	0	0	505	521	0	468	39	9	
10	0	0	0	0	510	521	0	468	39	9	
11	0	0	0	0	508	522	0	469	39	9	
12	0	0	0	0	512	523	0	471	39	9	
13	0	0	0	0	507	523	0	472	39	9	
14	0	0	0	0	512	524	0	474	39	9	
15	0	0	0	0	508	524	0	479	39	9	
0	0	0	0	0	508	524	0	503	39	9	
1	0	0	0	0	507	525	0	516	39	9	
2	0	0	0	0	512	526	0	531	39	9	
3	0	0	0	0	502	527	0	543	39	9	
4	0	0	0	0	507	527	0	543	39	9	
5	0	0	0	0	511	528	0	555	39	9	
6	0	0	0	0	511	528	0	553	39	9	
7	0	0	0	0	504	528	0	555	39	9	
8	0	0	0	0	507	529	0	559	39	9	
9	0	0	0	0	516	528	0	550	39	9	
10	0	0	0	0	500	528	0	559	39	9	
11	0	0	0	0	509	528	0	554	39	9	
12	0	0	0	0	503	528	0	556	39	9	
13	0	0	0	0	501	528	0	559	39	9	
14	0	0	0	0	511	528	0	552	39	9	
15	0	0	0	0	506	527	0	558	39	9	
0	0	0	0	0	508	527	0	552	39	9	
1	0	0	0	0	500	527	0	543	39	9	
2	0	0	0	0	506	527	0	530	39	9	
3	0	0	0	0	509	527	0	515	39	9	
4	0	0	0	0	508	527	0	501	39	9	
5	0	0	0	0	511	526	0	490	39	9	
6	0	0	0	0	505	526	0	482	39	9	
7	0	0	0	0	512	526	0	478	39	9	
8	0	0	0	0	510	526	0	472	39	9	
9	0	0	0	0	508	525	0	469	39	9	
10	0	0	0	0	501	525	0	464	39	9	
11	0	0	0	0	504	524	0	471	38	9	
12	0	0	0	0	504	524	0	464	39	9	
13	0	0	0	0	508	524	0	480	39	9	
14	0	0	0	0	512	523	0	466	39	9	
15	0	0	0	0	517	522	0	477	39	9	
0	0	0	0	0	504	521	0	457	39	9	
1	0	0	0	0	504	521	0	470	39	9	
2	0	0	0	0	511	519	0	455	39	9	
3	0	0	0	0	507	519	0	463	39	9	
4	0	0	0	0	512	519	0	461	38	9	
5	0	0	0	0	505	518	0	461	38	9	
6	0	0	0	0	508	517	0	462	38	9	
7	0	0	0	0	504	517	0	461	38	9	
8	0	0	0	0	509	515	0	458	39	9	
9	0	0	0	0	507	515	0	452	38	9	
10	0	0	0	0	504	515	0	452	38	9	
11	0	0	0	0	506	514	0	454	39	9	
12	0	0	0	0	507	513	0	457	39	9	
13	0	0	0	0	508	511	0	465	38	9	
14	0	0	0	0	509	511	0	462	38	9	
15	0	0	0	0	504	510	0	462	38	9	
0	0	0	0	0	510	508	0	461	39	9	
1	0	0	0	0	517	507	0	461	38	9	
2	0	0	0	0	506	506	0	462	38	9	
3	0	0	0	0	504	505	0	467	38	9	
4	0	0	0	0	508	504	0	486	38	9	
5	0	0	0	0	508	502	0	513	39	9	
6	0	0	0	0	505	501	0	522	39	9	
7	0	0	0	0	508	500	0	542	38	9	
8	0	0	0	0	508	499	0	538	39	9	
9	0	0	0	0	503	497	0	543	39	9	
10	0	0	0	0	507	497	0	551	39	9	
11	0	0	0	0	504	497	0	551	39	9	
12	0	0	0	0	510	496	0	559	39	9	
13	0	0	0	0	513	496	0	555	39	9	
14	0	0	0	0	512	496	0	555	39	9	
15	0	0	0	0	506	496	0	559	39	9	
0	0	0	0	0	504	496	0	551	39	9	
1	0	0	0	0	510	496	0	560	39	9	
2	0	0	0	0	501	496	0	554	39	9	
3	0	0	0	0	503	496	0	549	39	9	
4	0	0	0	0	509	496	0	536	39	9	
5	0	0	0	0	512	496	0	520	39	9	
6	0	0	0	0	508	496	0	507	39	9	
7	0	0	0	0	512	496	0	497	39	9	
8	0	0	0	0	508	496	0	486	39	9	
9	0	0	0	0	513	496	0	478	39	9	
10	0	0	0	0	506	497	0	474	39	9	
11	0	0	0	0	505	497	0	475	39	9	
12	0	0	0	0	504	497	0	472	39	9	
13	0	0	0	0	502	497	0	473	39	9	
14	0	0	0	0	513	497	0	473	39	9	
15	0	0	0	0	504	497	0	473	39	9	
0	0	0	0	0	508	497	0	470	39	9	
1	0	0	0	0	511	498	0	466	39	9	
2	0	0	0	0	508	498	0	469	39	9	
3	0	0	0	0	510	498	0	469	39	9	
4	0	0	0	0	506	497	0	474	39	9	
5	0	0	0	0	504	498	0	476	39	9	
6	0	0	0	0	509	498	0	480	39	9	
7	0	0	0	0	500	498	0	477	39	9	
8	0	0	0	0	505	498	0	477	39	9	
9	0	0	0	0	507	498	0	472	39	9	
10	0	0	0	0	504	498	0	477	39	9	
11	0	0	0	0	512	499	0	477	39	9	
12	0	0	0	0	512	498	0	479	38	9	
13	0	0	0	0	507	498	0	481	39	9	
14	0	0	0	0	505	498	0	484	39	9	
15	0	0	0	0	504	498	0	487	39	9	
0	0	0	0	0	504	498	0	508	38	9	
1	0	0	0	0	505	498	0	524	38	9	
2	0	0	0	0	512	498	0	536	39	9	
3	0	0	0	0	509	499	0	556	39	9	
4	0	0	0	0	511	499	0	560	38	9	
5	0	0	0	0	509	499	0	570	39	9	
6	0	0	0	0	515	499	0	572	38	9	
7	0	0	0	0	511	499	0	568	39	9	
8	0	0	0	0	508	499	0	577	39	9	
9	0	0	0	0	504	499	0	568	38	9	
10	0	0	0	0	507	499	0	574	38	9	
11	0	0	0	0	513	499	0	575	38	9	
12	0	0	0	0	499	499	0	573	39	9	
13	0	0	0	0	504	499	0	579	38	9	
14	0	0	0	0	508	499	0	570	38	9	
15	0	0	0	0	501	499	0	572	38	9	
0	0	0	0	0	509	499	0	567	38	9	
1	0	0	0	0	515	499	0	558	38	9	
2	0	0	0	0	504	499	0	546	38	9	
3	0	0	0	0	509	499	0	532	38	9	
4	0	0	0	0	508	499	0	518	39	9	
5	0	0	0	0	506	499	0	510	39	9	
6	0	0	0	0	502	500	0	500	39	9	
7	0	0	0	0	510	500	0	498	38	9	
8	0	0	0	0	510	501	0	492	39	9	
9	0	0	0	0	504	500	0	490	38	9	
10	0	0	0	0	508	500	0	486	38	9	
11	0	0	0	0	505	500	0	487	39	9	
12	0	0	0	0	500	500	0	487	39	9	
13	0	0	0	0	516	500	0	490	39	9	
14	0	0	0	0	512	501	0	488	38	9	
15	0	0	0	0	504	501	0	486	39	9	
0	0	0	0	0	507	502	0	480	39	9	
1	0	0	0	0	502	502	0	483	38	9	
2	0	0	0	0	496	502	0	477	39	9	
3	0	0	0	0	511	502	0	481	39	9	
4	0	0	0	0	504	503	0	480	39	9	
5	0	0	0	0	508	502	0	485	39	9	
6	0	0	0	0	508	503	0	484	39	9	
7	0	0	0	0	511	503	0	486	39	9	
8	0	0	0	0	512	503	0	481	39	9	
9	0	0	0	0	502	504	0	481	39	9	
10	0	0	0	0	510	503	0	480	39	9	
11	0	0	0	0	511	500	0	484	39	9	
12	0	0	0	0	507	498	0	485	38	9	
13	0	0	0	0	512	495	0	487	39	9	
14	0	0	0	0	510	492	0	504	39	9	
15	0	0	0	0	509	488	0	526	39	9	
0	0	0	0	0	515	486	0	530	39	9	
1	0	0	0	0	503	482	0	551	39	9	
2	0	0	0	0	508	479	0	557	39	9	
3	0	0	0	0	505	476	0	565	39	9	
4	0	0	0	0	504	472	0	576	39	9	
5	0	0	0	0	507	469	0	574	39	9	
6	0	0	0	0	505	470	0	583	39	9	
7	0	0	0	0	510	473	0	573	39	9	
8	0	0	0	0	510	479	0	569	39	9	
9	0	0	0	0	506	486	0	572	39	9	
10	0	0	0	0	510	494	0	565	39	9	
11	0	0	0	0	502	503	0	558	38	9	
12	0	0	0	0	507	512	0	543	39	9	
13	0	0	0	0	503	523	0	529	38	9	
14	0	0	0	0	506	533	0	515	39	9	
15	0	0	0	0	510	543	0	507	38	9	
0	0	0	0	0	505	552	0	497	39	9	
1	0	0	0	0	505	563	0	491	38	9	
2	0	0	0	0	515	574	0	484	39	9	
3	0	0	0	0	505	585	0	485	39	9	
4	0	0	0	0	514	595	0	483	39	9	
5	0	0	0	0	512	606	0	487	38	9	
6	0	0	0	0	503	616	0	484	39	9	
7	0	0	0	0	509	626	0	482	39	9	
8	0	0	0	0	507	638	0	476	39	9	
9	0	0	0	0	508	647	0	474	38	9	
10	0	0	0	0	508	656	0	473	38	9	
11	0	0	0	0	512	666	0	477	38	9	
12	0	0	0	0	510	676	0	477	38	9	
13	0	0	0	0	504	685	0	479	39	9	
14	0	0	0	0	504	691	0	480	39	9	
15	0	0	0	0	510	696	0	480	39	9	
0	0	0	0	0	514	698	0	479	39	9	
1	0	0	0	0	509	700	0	477	39	9	
2	0	0	0	0	505	697	0	479	39	9	
3	0	0	0	0	504	691	0	480	38	9	
4	0	0	0	0	504	683	0	481	39	9	
5	0	0	0	0	501	673	0	483	39	9	
6	0	0	0	0	509	661	0	482	38	9	
7	0	0	0	0	510	649	0	492	38	9	
8	0	0	0	0	507	637	0	527	39	9	
9	0	0	0	0	504	623	0	521	39	9	
10	0	0	0	0	511	609	0	547	38	9	
11	0	0	0	0	513	595	0	548	38	9	
12	0	0	0	0	504	580	0	557	39	9	
13	0	0	0	0	512	566	0	568	39	9	
14	0	0	0	0	513	552	0	567	39	9	
15	0	0	0	0	505	539	0	572	39	9	
0	0	0	0	0	504	524	0	567	39	9	
1	0	0	0	0	508	510	0	557	39	9	
2	0	0	0	0	510	497	0	564	39	9	
3	0	0	0	0	502	483	0	559	39	9	
4	0	0	0	0	499	470	0	552	39	9	
5	0	0	0	0	518	456	0	539	38	9	
6	0	0	0	0	505	442	0	523	39	9	
7	0	0	0	0	511	429	0	510	38	9	
8	0	0	0	0	507	417	0	498	39	9	
9	0	0	0	0	507	404	0	513	39	9	
10	0	0	0	0	505	397	0	527	39	9	
11	0	0	0	0	506	393	0	534	39	9	
12	0	0	0	0	508	392	0	532	39	9	
13	0	0	0	0	507	394	0	523	39	9	
14	0	0	0	0	512	398	0	512	39	9	
15	0	0	0	0	507	403	0	500	39	9	
0	0	0	0	0	509	409	0	493	39	9	
1	0	0	0	0	503	415	0	483	39	9	
2	0	0	0	0	505	422	0	481	39	9	
3	0	0	0	0	511	429	0	478	39	9	
4	0	0	0	0	508	437	0	479	39	9	
5	0	0	0	0	512	445	0	477	39	9	
6	0	0	0	0	507	451	0	479	38	9	
7	0	0	0	0	503	456	0	476	39	9	
8	0	0	0	0	507	460	0	474	39	9	
9	0	0	0	0	509	462	0	472	38	9	
10	0	0	0	0	504	465	0	476	39	9	
11	0	0	0	0	513	467	0	475	39	9	
12	0	0	0	0	503	468	0	479	39	9	
13	0	0	0	0	506	469	0	478	39	9	
14	0	0	0	0	503	471	0	480	39	9	
15	0	0	0	0	508	472	0	478	39	9	
0	0	0	0	0	509	473	0	478	39	9	
1	0	0	0	0	505	474	0	472	39	9	
2	0	0	0	0	504	474	0	476	39	9	
3	0	0	0	0	514	475	0	475	39	9	
4	0	0	0	0	505	475	0	483	39	9	
5	0	0	0	0	514	475	0	484	38	9	
6	0	0	0	0	506	476	0	489	38	9	
7	0	0	0	0	501	476	0	487	39	9	
8	0	0	0	0	509	476	0	506	39	9	
9	0	0	0	0	514	476	0	519	39	9	
10	0	0	0	0	504	477	0	531	39	9	
11	0	0	0	0	507	478	0	550	39	9	
12	0	0	0	0	508	479	0	559	39	9	
13	0	0	0	0	502	480	0	564	39	9	
14	0	0	0	0	510	480	0	571	39	9	
15	0	0	0	0	507	481	0	560	39	9	
0	0	0	0	0	503	481	0	568	39	9	
1	0	0	0	0	509	482	0	559	39	9	
2	0	0	0	0	510	482	0	559	39	9	
3	0	0	0	0	509	483	0	565	39	9	
4	0	0	0	0	503	483	0	573	39	9	
5	0	0	0	0	506	484	0	551	39	9	
6	0	0	0	0	509	484	0	567	39	9	
7	0	0	0	0	508	484	0	556	39	9	
8	0	0	0	0	505	485	0	561	39	9	
9	0	0	0	0	505	485	0	537	39	9	
10	0	0	0	0	510	485	0	526	39	9	
11	0	0	0	0	510	485	0	508	39	9	
12	0	0	0	0	513	485	0	499	39	9	
13	0	0	0	0	513	486	0	493	39	9	
14	0	0	0	0	505	486	0	494	39	9	
15	0	0	0	0	507	487	0	491	38	9	
0	0	0	0	0	504	487	0	488	39	9	
1	0	0	0	0	501	488	0	484	38	9	
2	0	0	0	0	510	489	0	483	39	9	
3	0	0	0	0	507	489	0	483	39	9	
4	0	0	0	0	500	490	0	484	39	9	
5	0	0	0	0	506	491	0	482	39	9	
6	0	0	0	0	504	491	0	484	38	9	
7	0	0	0	0	510	491	0	480	39	9	
8	0	0	0	0	513	491	0	480	38	9	
9	0	0	0	0	515	491	0	474	39	9	
10	0	0	0	0	510	492	0	476	38	9	
11	0	0	0	0	500	492	0	475	38	9	
12	0	0	0	0	508	493	0	487	39	9	
13	0	0	0	0	511	493	0	481	39	9	
14	0	0	0	0	505	493	0	491	38	9	
15	0	0	0	0	503	494	0	481	38	9	
0	0	0	0	0	507	494	0	478	39	9	
1	0	0	0	0	506	495	0	476	39	9	
2	0	0	0	0	512	495	0	480	38	9	
3	0	0	0	0	504	496	0	480	38	9	
4	0	0	0	0	507	496	0	484	39	9	
5	0	0	0	0	512	496	0	484	39	9	
6	0	0	0	0	500	496	0	487	39	9	
7	0	0	0	0	506	497	0	493	39	9	
8	0	0	0	0	509	498	0	518	39	9	
9	0	0	0	0	505	498	0	528	39	9	
10	0	0	0	0	513	499	0	547	38	9	
11	0	0	0	0	507	499	0	560	39	9	
12	0	0	0	0	504	500	0	561	39	9	
13	0	0	0	0	504	500	0	574	39	9	
14	0	0	0	0	518	501	0	574	39	9	
15	0	0	0	0	512	501	0	575	39	9	
0	0	0	0	0	499	502	0	580	39	9	
1	0	0	0	0	509	502	0	572	38	9	
2	0	0	0	0	508	503	0	581	39	9	
3	0	0	0	0	511	503	0	578	39	9	
4	0	0	0	0	510	504	0	582	39	9	
5	0	0	0	0	507	504	0	585	38	9	
6	0	0	0	0	504	504	0	578	38	9	
7	0	0	0	0	515	505	0	585	38	9	
8	0	0	0	0	504	506	0	579	39	9	
9	0	0	0	0	507	507	0	570	39	9	
10	0	0	0	0	505	506	0	557	39	9	
11	0	0	0	0	505	507	0	542	39	9	
12	0	0	0	0	511	507	0	529	39	9	
13	0	0	0	0	506	507	0	518	39	9	
14	0	0	0	0	510	508	0	511	39	9	
15	0	0	0	0	513	508	0	505	39	9	
0	0	0	0	0	507	507	0	504	39	9	
1	0	0	0	0	509	508	0	498	39	9	
2	0	0	0	0	507	508	0	498	39	9	
3	0	0	0	0	512	508	0	496	39	9	
4	0	0	0	0	509	508	0	497	39	9	
5	0	0	0	0	499	508	0	499	39	9	
6	0	0	0	0	514	508	0	497	39	9	
7	0	0	0	0	503	508	0	496	38	9	
8	0	0	0	0	504	509	0	492	39	9	
9	0	0	0	0	499	510	0	489	39	9	
10	0	0	0	0	507	510	0	490	39	9	
11	0	0	0	0	511	510	0	494	39	9	
12	0	0	0	0	511	511	0	496	39	9	
13	0	0	0	0	517	511	0	499	39	9	
14	0	0	0	0	503	512	0	499	39	9	
15	0	0	0	0	511	512	0	500	39	9	
0	0	0	0	0	504	512	0	498	39	9	
1	0	0	0	0	512	513	0	494	39	9	
2	0	0	0	0	510	513	0	494	38	9	
3	0	0	0	0	504	513	0	495	39	9	
4	0	0	0	0	512	513	0	499	39	9	
5	0	0	0	0	512	514	0	499	38	9	
6	0	0	0	0	504	514	0	500	38	9	
7	0	0	0	0	514	515	0	497	38	9	
8	0	0	0	0	502	515	0	495	39	9	
9	0	0	0	0	509	516	0	491	39	9	
10	0	0	0	0	503	516	0	492	38	9	
11	0	0	0	0	505	516	0	494	38	9	
12	0	0	0	0	513	517	0	495	39	9	
13	0	0	0	0	504	517	0	495	39	9	
14	0	0	0	0	509	518	0	497	39	9	
15	0	0	0	0	508	518	0	497	39	9	
0	0	0	0	0	500	518	0	495	39	9	
1	0	0	0	0	504	518	0	491	38	9	
2	0	0	0	0	505	518	0	492	39	9	
3	0	0	0	0	509	518	0	495	39	9	
4	0	0	0	0	508	518	0	497	39	9	
5	0	0	0	0	517	518	0	498	38	9	
6	0	0	0	0	509	518	0	499	38	9	
7	0	0	0	0	505	518	0	500	38	9	
8	0	0	0	0	511	517	0	496	38	9	
9	0	0	0	0	508	517	0	496	39	9	
10	0	0	0	0	511	517	0	494	39	9	
11	0	0	0	0	503	517	0	497	38	9	
12	0	0	0	0	507	518	0	498	39	9	
13	0	0	0	0	506	519	0	503	39	9	
14	0	0	0	0	498	519	0	502	39	9	
15	0	0	0	0	505	519	0	500	39	9	
0	0	0	0	0	500	519	0	492	39	9	
1	0	0	0	0	504	520	0	504	39	9	
2	0	0	0	0	512	520	0	491	39	9	
3	0	0	0	0	516	520	0	506	39	9	
4	0	0	0	0	511	520	0	495	39	9	
5	0	0	0	0	516	520	0	498	38	9	
6	0	0	0	0	503	520	0	497	39	9	
7	0	0	0	0	509	521	0	499	38	9	
8	0	0	0	0	508	521	0	494	39	9	
9	0	0	0	0	512	522	0	507	39	9	
10	0	0	0	0	503	522	0	491	38	9	
11	0	0	0	0	508	522	0	495	39	9	
12	0	0	0	0	504	521	0	499	38	9	
13	0	0	0	0	506	521	0	501	39	9	
14	0	0	0	0	511	521	0	504	39	9	
15	0	0	0	0	500	521	0	503	38	9	
0	0	0	0	0	502	521	0	499	39	9	
1	0	0	0	0	515	521	0	495	39	9	
2	0	0	0	0	511	521	0	493	39	9	
3	0	0	0	0	508	521	0	495	39	9	
4	0	0	0	0	508	521	0	496	39	9	
5	0	0	0	0	518	521	0	498	39	9	
6	0	0	0	0	507	521	0	500	39	9	
7	0	0	0	0	507	521	0	500	39	9	
8	0	0	0	0	506	522	0	495	39	9	
9	0	0	0	0	507	522	0	493	39	9	
10	0	0	0	0	501	521	0	495	39	9	
11	0	0	0	0	504	522	0	498	39	9	
12	0	0	0	0	504	522	0	499	39	9	
13	0	0	0	0	509	523	0	497	39	9	
14	0	0	0	0	509	524	0	492	39	9	
15	0	0	0	0	504	524	0	489	39	9	
0	0	0	0	0	510	525	0	488	39	9	
1	0	0	0	0	508	526	0	488	39	9	
2	0	0	0	0	506	526	0	490	38	9	
3	0	0	0	0	512	527	0	494	39	9	
4	0	0	0	0	515	528	0	498	39	9	
5	0	0	0	0	503	529	0	496	39	9	
6	0	0	0	0	506	530	0	492	39	9	
7	0	0	0	0	511	530	0	488	39	9	
8	0	0	0	0	509	531	0	486	39	9	
9	0	0	0	0	512	531	0	484	39	9	
10	0	0	0	0	511	531	0	487	39	9	
11	0	0	0	0	516	532	0	491	39	9	
12	0	0	0	0	505	532	0	491	39	9	
13	0	0	0	0	504	532	0	488	39	9	
14	0	0	0	0	503	533	0	484	39	9	
15	0	0	0	0	510	533	0	480	39	9	
0	0	0	0	0	504	532	0	478	39	9	
1	0	0	0	0	502	532	0	476	39	9	
2	0	0	0	0	509	532	0	477	39	9	
3	0	0	0	0	507	533	0	481	39	9	
4	0	0	0	0	504	533	0	484	39	9	
5	0	0	0	0	508	533	0	484	39	9	
6	0	0	0	0	504	534	0	482	39	9	
7	0	0	0	0	503	535	0	480	39	9	
8	0	0	0	0	506	535	0	480	39	9	
9	0	0	0	0	514	534	0	477	39	9	
10	0	0	0	0	507	534	0	480	39	9	
11	0	0	0	0	505	534	0	482	39	9	
12	0	0	0	0	504	533	0	484	39	9	
13	0	0	0	0	500	532	0	496	38	9	
14	0	0	0	0	510	531	0	519	39	9	
15	0	0	0	0	506	530	0	526	39	9	
0	0	0	0	0	508	528	0	546	39	9	
1	0	0	0	0	510	527	0	553	38	9	
2	0	0	0	0	515	526	0	559	39	9	
3	0	0	0	0	506	525	0	574	39	9	
4	0	0	0	0	515	523	0	572	39	9	
5	0	0	0	0	511	522	0	577	38	9	
6	0	0	0	0	498	521	0	578	39	9	
7	0	0	0	0	505	520	0	574	39	9	
8	0	0	0	0	509	519	0	583	39	9	
9	0	0	0	0	512	518	0	576	39	9	
10	0	0	0	0	512	516	0	581	39	9	
11	0	0	0	0	508	515	0	577	39	9	
12	0	0	0	0	504	515	0	561	39	9	
13	0	0	0	0	502	513	0	542	39	9	
14	0	0	0	0	510	512	0	525	39	9	
15	0	0	0	0	507	511	0	513	39	9	
0	0	0	0	0	504	510	0	501	39	9	
1	0	0	0	0	510	509	0	497	39	9	
2	0	0	0	0	508	509	0	493	38	9	
3	0	0	0	0	512	508	0	495	39	9	
4	0	0	0	0	512	508	0	491	39	9	
5	0	0	0	0	513	508	0	485	39	9	
6	0	0	0	0	505	507	0	483	39	9	
7	0	0	0	0	502	506	0	480	39	9	
8	0	0	0	0	507	505	0	476	39	9	
9	0	0	0	0	506	504	0	472	39	9	
10	0	0	0	0	510	504	0	473	39	9	
11	0	0	0	0	507	503	0	477	38	9	
12	0	0	0	0	507	501	0	478	39	9	
13	0	0	0	0	503	499	0	477	39	9	
14	0	0	0	0	506	497	0	472	39	9	
15	0	0	0	0	507	495	0	471	39	9	
0	0	0	0	0	511	493	0	468	39	9	
1	0	0	0	0	506	491	0	468	39	9	
2	0	0	0	0	503	489	0	472	39	9	
3	0	0	0	0	505	487	0	476	39	9	
4	0	0	0	0	508	484	0	480	39	9	
5	0	0	0	0	508	483	0	481	39	9	
6	0	0	0	0	508	480	0	483	39	9	
7	0	0	0	0	513	477	0	477	39	9	
8	0	0	0	0	508	476	0	477	39	9	
9	0	0	0	0	508	474	0	472	38	9	
10	0	0	0	0	510	473	0	477	39	9	
11	0	0	0	0	507	472	0	477	39	9	
12	0	0	0	0	503	470	0	481	39	9	
13	0	0	0	0	507	469	0	479	39	9	
14	0	0	0	0	509	468	0	478	39	9	
15	0	0	0	0	505	467	0	475	39	9	
0	0	0	0	0	511	467	0	476	39	9	
1	0	0	0	0	499	466	0	473	39	9	
2	0	0	0	0	507	465	0	480	38	9	
3	0	0	0	0	512	464	0	483	38	9	
4	0	0	0	0	508	463	0	491	39	9	
5	0	0	0	0	506	463	0	494	39	9	
6	0	0	0	0	510	463	0	500	39	9	
7	0	0	0	0	510	462	0	501	39	9	
8	0	0	0	0	513	463	0	502	39	9	
9	0	0	0	0	512	462	0	515	39	9	
10	0	0	0	0	508	462	0	541	39	9	
11	0	0	0	0	502	462	0	549	39	9	
12	0	0	0	0	510	462	0	568	39	9	
13	0	0	0	0	498	462	0	576	39	9	
14	0	0	0	0	515	463	0	577	39	9	
15	0	0	0	0	506	463	0	586	38	9	
0	0	0	0	0	502	464	0	580	39	9	
1	0	0	0	0	512	464	0	583	38	9	
2	0	0	0	0	515	465	0	586	39	9	
3	0	0	0	0	506	465	0	582	39	9	
4	0	0	0	0	508	466	0	589	39	9	
5	0	0	0	0	510	467	0	576	39	9	
6	0	0	0	0	511	467	0	585	38	9	
7	0	0	0	0	509	467	0	576	38	9	
8	0	0	0	0	502	468	0	573	39	9	
9	0	0	0	0	508	468	0	541	39	9	
10	0	0	0	0	510	468	0	527	39	9	
11	0	0	0	0	505	469	0	511	39	9	
12	0	0	0	0	503	469	0	504	38	9	
13	0	0	0	0	510	470	0	495	39	9	
14	0	0	0	0	508	470	0	500	38	9	
15	0	0	0	0	500	470	0	493	39	9	
0	0	0	0	0	512	470	0	488	39	9	
1	0	0	0	0	511	470	0	486	38	9	
2	0	0	0	0	508	471	0	486	39	9	
3	0	0	0	0	512	472	0	487	38	9	
4	0	0	0	0	508	472	0	488	38	9	
5	0	0	0	0	500	472	0	485	38	9	
6	0	0	0	0	511	473	0	489	38	9	
7	0	0	0	0	511	473	0	480	38	9	
8	0	0	0	0	504	473	0	485	39	9	
9	0	0	0	0	506	473	0	479	38	9	
10	0	0	0	0	505	474	0	482	38	9	
11	0	0	0	0	509	475	0	485	38	9	
12	0	0	0	0	510	475	0	488	39	9	
13	0	0	0	0	501	476	0	487	38	9	
14	0	0	0	0	504	475	0	485	39	9	
15	0	0	0	0	511	476	0	482	38	9	
0	0	0	0	0	505	476	0	481	39	9	
1	0	0	0	0	504	476	0	479	39	9	
2	0	0	0	0	511	476	0	483	39	9	
3	0	0	0	0	508	477	0	487	39	9	
4	0	0	0	0	508	477	0	492	39	9	
5	0	0	0	0	510	477	0	495	39	9	
6	0	0	0	0	513	478	0	498	39	9	
7	0	0	0	0	510	478	0	501	39	9	
8	0	0	0	0	513	478	0	503	39	9	
9	0	0	0	0	507	479	0	503	39	9	
10	0	0	0	0	507	479	0	504	39	9	
11	0	0	0	0	502	480	0	515	39	9	
12	0	0	0	0	512	481	0	544	39	9	
13	0	0	0	0	501	480	0	555	39	9	
14	0	0	0	0	503	480	0	574	39	9	
15	0	0	0	0	500	481	0	582	39	9	
0	0	0	0	0	510	481	0	585	39	9	
1	0	0	0	0	512	481	0	598	39	9	
2	0	0	0	0	507	482	0	592	39	9	
3	0	0	0	0	509	482	0	600	39	9	
4	0	0	0	0	517	483	0	595	39	9	
5	0	0	0	0	510	483	0	579	39	9	
6	0	0	0	0	511	483	0	565	38	9	
7	0	0	0	0	508	483	0	577	39	9	
8	0	0	0	0	500	483	0	575	39	9	
9	0	0	0	0	505	484	0	582	39	9	
10	0	0	0	0	504	484	0	590	39	9	
11	0	0	0	0	504	485	0	585	38	9	
12	0	0	0	0	513	486	0	595	39	9	
13	0	0	0	0	510	486	0	591	39	9	
14	0	0	0	0	507	486	0	591	39	9	
15	0	0	0	0	511	486	0	596	39	9	
0	0	0	0	0	510	487	0	589	39	9	
1	0	0	0	0	505	487	0	596	39	9	
2	0	0	0	0	506	487	0	585	39	9	
3	0	0	0	0	509	487	0	567	39	9	
4	0	0	0	0	502	487	0	546	39	9	
5	0	0	0	0	506	487	0	530	39	9	
6	0	0	0	0	501	488	0	520	39	9	
7	0	0	0	0	509	488	0	536	38	9	
8	0	0	0	0	505	488	0	548	39	9	
9	0	0	0	0	514	489	0	557	38	9	
10	0	0	0	0	503	489	0	575	39	9	
11	0	0	0	0	510	489	0	574	39	9	
12	0	0	0	0	512	489	0	558	39	9	
13	0	0	0	0	506	489	0	542	39	9	
14	0	0	0	0	507	489	0	528	39	9	
15	0	0	0	0	511	489	0	518	38	9	
0	0	0	0	0	508	490	0	508	39	9	
1	0	0	0	0	501	490	0	498	38	9	
2	0	0	0	0	513	490	0	497	39	9	
3	0	0	0	0	509	490	0	496	39	9	
4	0	0	0	0	508	491	0	501	39	9	
5	0	0	0	0	503	491	0	496	39	9	
6	0	0	0	0	510	491	0	504	39	9	
7	0	0	0	0	505	491	0	488	39	9	
8	0	0	0	0	503	492	0	485	39	9	
9	0	0	0	0	510	492	0	485	39	9	
10	0	0	0	0	506	492	0	487	39	9	
11	0	0	0	0	511	493	0	491	38	9	
12	0	0	0	0	508	494	0	493	39	9	
13	0	0	0	0	512	494	0	495	39	9	
14	0	0	0	0	508	495	0	501	39	9	
15	0	0	0	0	509	495	0	527	39	9	
0	0	0	0	0	504	495	0	541	39	9	
1	0	0	0	0	503	495	0	558	39	9	
2	0	0	0	0	509	495	0	577	39	9	
3	0	0	0	0	503	495	0	573	39	9	
4	0	0	0	0	503	495	0	559	39	9	
5	0	0	0	0	500	496	0	543	39	9	
6	0	0	0	0	511	496	0	525	39	9	
7	0	0	0	0	511	496	0	513	39	9	
8	0	0	0	0	508	496	0	501	39	9	
9	0	0	0	0	507	497	0	495	39	9	
10	0	0	0	0	499	497	0	494	39	9	
11	0	0	0	0	503	497	0	496	39	9	
12	0	0	0	0	508	497	0	499	39	9	
13	0	0	0	0	516	497	0	498	39	9	
14	0	0	0	0	507	497	0	496	39	9	
15	0	0	0	0	511	497	0	494	39	9	
0	0	0	0	0	507	497	0	492	39	9	
1	0	0	0	0	507	497	0	491	39	9	
2	0	0	0	0	500	497	0	494	39	9	
3	0	0	0	0	506	497	0	497	39	9	
4	0	0	0	0	509	497	0	499	39	9	
5	0	0	0	0	511	497	0	497	39	9	
6	0	0	0	0	506	497	0	493	39	9	
7	0	0	0	0	510	498	0	491	39	9	
8	0	0	0	0	509	498	0	487	39	9	
9	0	0	0	0	513	498	0	487	39	9	
10	0	0	0	0	505	499	0	489	39	9	
11	0	0	0	0	501	498	0	493	39	9	
12	0	0	0	0	511	499	0	496	39	9	
13	0	0	0	0	512	499	0	495	39	9	
14	0	0	0	0	509	499	0	492	39	9	
15	0	0	0	0	503	499	0	487	38	9	
0	0	0	0	0	508	499	0	485	39	9	
1	0	0	0	0	504	499	0	484	38	9	
2	0	0	0	0	506	499	0	486	38	9	
3	0	0	0	0	504	499	0	489	38	9	
4	0	0	0	0	507	499	0	489	38	9	
5	0	0	0	0	510	499	0	489	38	9	
6	0	0	0	0	509	499	0	488	38	9	
7	0	0	0	0	501	500	0	486	38	9	
8	0	0	0	0	513	501	0	484	39	9	
9	0	0	0	0	505	501	0	483	39	9	
10	0	0	0	0	504	501	0	487	39	9	
11	0	0	0	0	510	502	0	491	39	9	
12	0	0	0	0	505	501	0	493	38	9	
13	0	0	0	0	515	501	0	494	39	9	
14	0	0	0	0	509	501	0	493	39	9	
15	0	0	0	0	511	501	0	495	39	9	
0	0	0	0	0	505	502	0	496	39	9	
1	0	0	0	0	504	502	0	497	39	9	
2	0	0	0	0	512	502	0	497	38	9	
3	0	0	0	0	506	503	0	498	39	9	
4	0	0	0	0	506	503	0	498	39	9	
5	0	0	0	0	506	503	0	500	38	9	
6	0	0	0	0	500	503	0	502	39	9	
7	0	0	0	0	508	503	0	503	38	9	
8	0	0	0	0	512	503	0	504	39	9	
9	0	0	0	0	510	503	0	505	39	9	
10	0	0	0	0	509	503	0	507	39	9	
11	0	0	0	0	507	503	0	507	39	9	
12	0	0	0	0	508	503	0	510	38	9	
13	0	0	0	0	510	503	0	508	38	9	
14	0	0	0	0	519	504	0	509	38	9	
15	0	0	0	0	510	504	0	509	38	9	
0	0	0	0	0	506	504	0	509	39	9	
1	0	0	0	0	510	504	0	506	38	9	
2	0	0	0	0	503	504	0	505	39	9	
3	0	0	0	0	503	504	0	502	39	9	
4	0	0	0	0	504	504	0	505	39	9	
5	0	0	0	0	511	504	0	505	39	9	
6	0	0	0	0	505	504	0	511	39	9	
7	0	0	0	0	509	504	0	524	39	9	
8	0	0	0	0	508	504	0	543	39	9	
9	0	0	0	0	514	504	0	548	38	9	
10	0	0	0	0	507	504	0	568	39	9	
11	0	0	0	0	504	504	0	568	39	9	
12	0	0	0	0	500	504	0	573	39	9	
13	0	0	0	0	511	505	0	579	39	9	
14	0	0	0	0	508	505	0	573	39	9	
15	0	0	0	0	510	505	0	581	39	9	
0	0	0	0	0	506	505	0	574	39	9	
1	0	0	0	0	508	504	0	572	39	9	
2	0	0	0	0	509	505	0	577	39	9	
3	0	0	0	0	508	505	0	570	39	9	
4	0	0	0	0	507	505	0	576	39	9	
5	0	0	0	0	501	506	0	572	39	9	
6	0	0	0	0	509	507	0	573	39	9	
7	0	0	0	0	503	507	0	574	39	9	
8	0	0	0	0	510	507	0	566	39	9	
9	0	0	0	0	510	506	0	573	39	9	
10	0	0	0	0	510	505	0	570	39	9	
11	0	0	0	0	501	505	0	570	38	9	
12	0	0	0	0	509	505	0	571	39	9	
13	0	0	0	0	506	505	0	561	39	9	
14	0	0	0	0	509	505	0	570	39	9	
15	0	0	0	0	512	506	0	567	39	9	
0	0	0	0	0	510	506	0	568	39	9	
1	0	0	0	0	507	506	0	571	39	9	
2	0	0	0	0	503	506	0	564	39	9	
3	0	0	0	0	508	506	0	572	39	9	
4	0	0	0	0	506	506	0	568	39	9	
5	0	0	0	0	508	506	0	565	39	9	
6	0	0	0	0	514	506	0	572	39	9	
7	0	0	0	0	511	505	0	566	39	9	
8	0	0	0	0	503	505	0	575	39	9	
9	0	0	0	0	514	505	0	569	39	9	
10	0	0	0	0	502	505	0	569	39	9	
11	0	0	0	0	500	505	0	575	39	9	
12	0	0	0	0	509	505	0	569	39	9	
13	0	0	0	0	498	505	0	575	39	9	
14	0	0	0	0	510	505	0	566	39	9	
15	0	0	0	0	520	505	0	564	39	9	
0	0	0	0	0	513	505	0	569	39	9	
1	0	0	0	0	511	505	0	562	39	9	
2	0	0	0	0	508	506	0	586	39	9	
3	0	0	0	0	504	507	0	583	38	9	
4	0	0	0	0	499	507	0	572	39	9	
5	0	0	0	0	503	507	0	559	39	9	
6	0	0	0	0	506	507	0	565	39	9	
7	0	0	0	0	506	507	0	555	39	9	
8	0	0	0	0	513	507	0	559	39	9	
9	0	0	0	0	508	506	0	554	39	9	
10	0	0	0	0	510	506	0	551	39	9	
11	0	0	0	0	506	506	0	559	39	9	
12	0	0	0	0	511	506	0	554	39	9	
13	0	0	0	0	518	506	0	560	39	9	
14	0	0	0	0	504	506	0	562	39	9	
15	0	0	0	0	511	506	0	557	39	9	
0	0	0	0	0	508	506	0	564	39	9	
1	0	0	0	0	510	506	0	551	39	9	
2	0	0	0	0	498	506	0	556	39	9	
3	0	0	0	0	507	506	0	558	39	9	
4	0	0	0	0	505	506	0	559	39	9	
5	0	0	0	0	507	506	0	565	39	9	
6	0	0	0	0	503	507	0	559	39	9	
7	0	0	0	0	502	506	0	561	38	9	
8	0	0	0	0	507	506	0	556	39	9	
9	0	0	0	0	504	507	0	547	39	9	
10	0	0	0	0	512	507	0	535	39	9	
11	0	0	0	0	499	507	0	520	39	9	
12	0	0	0	0	511	507	0	506	39	9	
13	0	0	0	0	508	507	0	494	39	9	
14	0	0	0	0	512	507	0	487	39	9	
15	0	0	0	0	507	507	0	483	39	9	
0	0	0	0	0	505	507	0	478	39	9	
1	0	0	0	0	511	507	0	472	38	9	
2	0	0	0	0	507	506	0	490	39	9	
3	0	0	0	0	507	507	0	515	39	9	
4	0	0	0	0	508	507	0	524	39	9	
5	0	0	0	0	514	507	0	528	38	9	
6	0	0	0	0	515	508	0	522	39	9	
7	0	0	0	0	501	509	0	512	38	9	
8	0	0	0	0	502	510	0	505	39	9	
9	0	0	0	0	513	511	0	498	38	9	
10	0	0	0	0	512	511	0	493	38	9	
11	0	0	0	0	505	512	0	489	39	9	
12	0	0	0	0	500	513	0	487	38	9	
13	0	0	0	0	506	515	0	484	38	9	
14	0	0	0	0	509	516	0	484	39	9	
15	0	0	0	0	511	517	0	484	39	9	
0	0	0	0	0	505	518	0	483	39	9	
1	0	0	0	0	506	519	0	483	39	9	
2	0	0	0	0	506	520	0	484	39	9	
3	0	0	0	0	511	521	0	485	38	9	
4	0	0	0	0	503	522	0	486	39	9	
5	0	0	0	0	511	523	0	486	38	9	
6	0	0	0	0	514	524	0	484	39	9	
7	0	0	0	0	509	524	0	484	39	9	
8	0	0	0	0	503	525	0	479	39	9	
9	0	0	0	0	502	526	0	476	38	9	
10	0	0	0	0	512	526	0	475	38	9	
11	0	0	0	0	508	527	0	479	39	9	
12	0	0	0	0	507	527	0	479	39	9	
13	0	0	0	0	504	527	0	482	39	9	
14	0	0	0	0	505	528	0	481	39	9	
15	0	0	0	0	513	528	0	482	39	9	
0	0	0	0	0	510	529	0	476	39	9	
1	0	0	0	0	504	529	0	489	39	9	
2	0	0	0	0	507	530	0	510	39	9	
3	0	0	0	0	509	530	0	524	39	9	
4	0	0	0	0	507	530	0	542	39	9	
5	0	0	0	0	506	530	0	553	39	9	
6	0	0	0	0	510	530	0	545	39	9	
7	0	0	0	0	507	530	0	528	39	9	
8	0	0	0	0	504	530	0	508	39	9	
9	0	0	0	0	505	529	0	494	39	9	
10	0	0	0	0	507	529	0	503	39	9	
11	0	0	0	0	511	528	0	530	39	9	
12	0	0	0	0	513	528	0	528	39	9	
13	0	0	0	0	510	528	0	560	39	9	
14	0	0	0	0	506	528	0	544	39	9	
15	0	0	0	0	509	527	0	547	39	9	
0	0	0	0	0	507	527	0	549	39	9	
1	0	0	0	0	505	527	0	543	39	9	
2	0	0	0	0	502	526	0	553	38	9	
3	0	0	0	0	508	526	0	551	39	9	
4	0	0	0	0	508	526	0	552	39	9	
5	0	0	0	0	515	526	0	556	39	9	
6	0	0	0	0	505	524	0	549	39	9	
7	0	0	0	0	512	523	0	555	38	9	
8	0	0	0	0	506	523	0	543	38	9	
9	0	0	0	0	504	523	0	540	38	9	
10	0	0	0	0	504	522	0	550	39	9	
11	0	0	0	0	511	521	0	544	38	9	
12	0	0	0	0	502	520	0	539	38	9	
13	0	0	0	0	512	519	0	524	39	9	
14	0	0	0	0	507	519	0	512	39	9	
15	0	0	0	0	509	518	0	499	38	9	
0	0	0	0	0	510	517	0	492	39	9	
1	0	0	0	0	507	516	0	483	38	9	
2	0	0	0	0	507	515	0	487	39	9	
3	0	0	0	0	505	515	0	476	39	9	
4	0	0	0	0	507	513	0	476	39	9	
5	0	0	0	0	508	512	0	476	39	9	
6	0	0	0	0	502	511	0	492	39	9	
