timestamp,signal
0,498
1,499
2,499
3,499
4,502
5,503
6,508
7,507
8,506
9,504
10,505
11,504
12,501
13,502
14,502
15,505
16,505
17,506
18,507
19,504
20,503
21,506
22,509
23,509
24,507
25,506
26,505
27,506
28,507
29,506
30,509
31,507
32,510
33,512
34,511
35,512
36,509
37,512
38,514
39,512
40,520
41,526
42,527
43,522
44,520
45,521
46,519
47,519
48,518
49,514
50,512
51,512
52,514
53,515
54,513
55,513
56,515
57,515
58,515
59,514
60,515
61,514
62,514
63,507
64,507
65,511
66,508
67,507
68,508
69,508
70,505
71,502
72,506
73,504
74,502
75,500
76,499
77,502
78,504
79,505
80,505
81,503
82,503
83,504
84,503
85,504
86,501
87,498
88,498
89,497
90,500
91,501
92,501
93,501
94,499
95,502
96,499
97,497
98,498
99,497
100,496
101,493
102,489
103,489
104,488
105,490
106,491
107,497
108,502
109,502
110,504
111,507
112,505
113,503
114,504
115,503
116,504
117,504
118,504
119,503
120,504
121,503
122,503
123,499
124,498
125,500
126,497
127,496
128,496
129,498
130,497
131,495
132,493
133,491
134,494
135,496
136,498
137,500
138,500
139,504
140,511
141,513
142,514
143,517
144,518
145,525
146,534
147,547
148,564
149,579
150,594
151,605
152,619
153,636
154,649
155,658
156,668
157,679
158,691
159,701
160,705
161,708
162,713
163,714
164,711
165,704
166,693
167,684
168,675
169,666
170,656
171,641
172,628
173,611
174,598
175,582
176,563
177,543
178,519
179,501
180,487
181,471
182,453
183,434
184,419
185,411
186,403
187,395
188,390
189,387
190,388
191,391
192,399
193,403
194,408
195,415
196,421
197,428
198,432
199,432
200,435
201,438
202,442
203,446
204,449
205,450
206,451
207,454
208,459
209,462
210,464
211,465
212,469
213,473
214,475
215,475
216,474
217,476
218,477
219,478
220,479
221,480
222,481
223,485
224,486
225,488
226,487
227,489
228,491
229,493
230,496
231,494
232,492
233,491
234,489
235,493
236,492
237,493
238,494
239,494
240,496
241,497
242,500
243,502
244,501
245,503
246,500
247,501
248,504
249,503
250,502
251,502
252,504
253,508
254,509
255,510
256,510
257,513
258,514
259,511
260,511
261,507
262,504
263,503
264,500
265,501
266,500
267,500
268,499
269,505
270,516
271,519
272,521
273,520
274,519
275,520
276,519
277,515
278,510
279,508
280,507
281,504
282,507
283,512
284,515
285,518
286,518
287,516
288,513
289,513
290,514
291,516
292,519
293,518
294,516
295,519
296,524
297,525
298,524
299,521
300,520
301,519
302,519
303,518
304,515
305,515
306,516
307,517
308,518
309,526
310,532
311,531
312,529
313,529
314,530
315,534
316,540
317,543
318,544
319,544
320,544
321,545
322,547
323,548
324,551
325,552
326,552
327,553
328,553
329,553
330,557
331,557
332,556
333,555
334,556
335,557
336,558
337,558
338,560
339,563
340,566
341,568
342,569
343,570
344,570
345,571
346,572
347,576
348,579
349,582
350,583
351,580
352,578
353,583
354,584
355,583
356,583
357,584
358,587
359,590
360,591
361,587
362,582
363,580
364,579
365,582
366,583
367,583
368,577
369,574
370,575
371,577
372,579
373,582
374,579
375,578
376,573
377,572
378,573
379,573
380,571
381,565
382,562
383,557
384,553
385,553
386,553
387,555
388,553
389,551
390,550
391,547
392,543
393,536
394,532
395,528
396,522
397,518
398,518
399,510
400,512
401,516
402,518
403,515
404,511
405,507
406,503
407,503
408,503
409,499
410,499
411,497
412,495
413,493
414,487
415,482
416,480
417,484
418,481
419,477
420,475
421,470
422,469
423,468
424,466
425,465
426,464
427,464
428,461
429,461
430,459
431,457
432,457
433,460
434,460
435,459
436,460
437,463
438,465
439,464
440,460
441,457
442,454
443,452
444,452
445,450
446,450
447,452
448,455
449,454
450,452
451,448
452,446
453,443
454,444
455,447
456,447
457,449
458,449
459,449
460,448
461,447
462,447
463,447
464,448
465,450
466,450
467,452
468,452
469,449
470,446
471,444
472,447
473,449
474,452
475,452
476,452
477,452
478,454
479,457
480,460
481,461
482,459
483,458
484,459
485,459
486,458
487,457
488,462
489,468
490,470
491,467
492,471
493,473
494,475
495,476
496,472
497,472
498,473
499,469
500,461
501,461
502,468
503,473
504,475
505,475
506,474
507,472
508,474
509,477
510,484
511,484
512,483
513,482
514,486
515,487
516,486
517,484
518,483
519,485
520,484
521,484
522,482
523,480
524,480
525,478
526,476
527,477
528,477
529,476
530,475
531,476
532,476
533,474
534,474
535,473
536,475
537,478
538,479
539,479
540,482
541,487
542,487
543,491
544,492
545,493
546,495
547,496
548,498
549,501
550,499
551,493
552,487
553,484
554,483
555,481
556,478
557,478
558,476
559,476
560,480
561,481
562,485
563,486
564,486
565,485
566,480
567,480
568,483
569,484
570,487
571,487
572,488
573,489
574,489
575,491
576,489
577,489
578,487
579,485
580,486
581,485
582,486
583,488
584,488
585,489
586,489
587,490
588,492
589,493
590,496
591,492
592,494
593,497
594,498
595,498
596,499
597,496
598,493
599,490
600,488
601,487
602,488
603,488
604,488
605,489
606,490
607,494
608,496
609,497
610,496
611,493
612,492
613,492
614,494
615,495
616,496
617,497
618,497
619,497
620,499
621,495
622,494
623,496
624,497
625,500
626,499
627,498
628,496
629,495
630,495
631,493
632,494
633,494
634,499
635,504
636,502
637,498
638,494
639,491
640,489
641,488
642,488
643,491
644,494
645,496
646,496
647,498
648,496
649,494
650,498
651,500
652,502
653,499
654,497
655,497
656,499
657,501
658,502
659,502
660,504
661,502
662,501
663,497
664,496
665,496
666,495
667,498
668,499
669,499
670,505
671,511
672,514
673,515
674,517
675,519
676,518
677,513
678,508
679,509
680,511
681,508
682,506
683,504
684,504
685,503
686,501
687,499
688,500
689,499
690,497
691,495
692,496
693,497
694,497
695,496
696,493
697,492
698,494
699,496
700,498
701,500
702,504
703,506
704,506
705,508
706,507
707,507
708,506
709,508
710,512
711,508
712,507
713,506
714,504
715,505
716,505
717,504
718,504
719,503
720,501
721,500
722,500
723,502
724,505
725,510
726,508
727,507
728,512
729,516
730,516
731,515
732,513
733,514
734,518
735,517
736,514
737,513
738,512
739,510
740,508
741,504
742,500
743,504
744,508
745,512
746,515
747,516
748,517
749,515
750,512
751,508
752,507
753,508
754,508
755,508
756,509
757,509
758,510
759,512
760,517
761,518
762,519
763,516
764,513
765,514
766,515
767,516
768,513
769,512
770,515
771,513
772,515
773,517
774,517
775,521
776,523
777,526
778,522
779,519
780,517
781,519
782,519
783,519
784,519
785,521
786,523
787,524
788,525
789,524
790,521
791,520
792,521
793,520
794,515
795,511
796,509
797,511
798,512
799,511
800,512
801,512
802,512
803,514
804,514
805,512
806,509
807,512
808,516
809,514
810,516
811,515
812,514
813,514
814,516
815,517
816,512
817,509
818,507
819,506
820,506
821,504
822,501
823,497
824,495
825,496
826,499
827,504
828,505
829,506
830,507
831,508
832,508
833,507
834,505
835,503
836,500
837,498
838,498
839,502
840,507
841,508
842,510
843,505
844,501
845,502
846,505
847,506
848,502
849,499
850,502
851,503
852,504
853,506
854,507
855,505
856,503
857,501
858,498
859,497
860,499
861,499
862,502
863,505
864,506
865,506
866,503
867,499
868,494
869,494
870,499
871,499
872,499
873,495
874,494
875,495
876,492
877,489
878,491
879,497
880,505
881,510
882,514
883,518
884,526
885,533
886,539
887,547
888,558
889,569
890,581
891,593
892,608
893,619
894,626
895,633
896,643
897,662
898,679
899,694
900,707
901,715
902,721
903,724
904,726
905,723
906,717
907,709
908,701
909,693
910,684
911,671
912,655
913,641
914,626
915,611
916,592
917,572
918,546
919,527
920,507
921,486
922,470
923,455
924,434
925,416
926,403
927,393
928,390
929,385
930,384
931,384
932,380
933,377
934,382
935,391
936,396
937,402
938,409
939,414
940,418
941,421
942,426
943,431
944,432
945,437
946,439
947,440
948,444
949,448
950,453
951,459
952,468
953,475
954,477
955,478
956,476
957,477
958,476
959,477
960,479
961,479
962,482
963,485
964,484
965,482
966,481
967,483
968,487
969,488
970,487
971,486
972,488
973,488
974,489
975,491
976,490
977,492
978,492
979,491
980,492
981,493
982,494
983,492
984,492
985,496
986,498
987,499
988,498
989,496
990,494
991,491
992,492
993,494
994,494
995,494
996,495
997,496
998,495
999,495
1000,495
1001,496
1002,498
1003,499
1004,499
1005,501
1006,503
1007,504
1008,505
1009,507
1010,513
1011,515
1012,514
1013,511
1014,508
1015,509
1016,507
1017,507
1018,507
1019,508
1020,513
1021,515
1022,515
1023,516
1024,515
1025,517
1026,517
1027,520
1028,524
1029,524
1030,521
1031,513
1032,513
1033,514
1034,516
1035,521
1036,522
1037,519
1038,519
1039,519
1040,521
1041,523
1042,525
1043,527
1044,527
1045,532
1046,534
1047,531
1048,530
1049,528
1050,529
1051,528
1052,529
1053,526
1054,524
1055,522
1056,522
1057,525
1058,529
1059,534
1060,539
1061,543
1062,546
1063,545
1064,544
1065,543
1066,540
1067,542
1068,544
1069,545
1070,545
1071,545
1072,544
1073,547
1074,551
1075,555
1076,553
1077,552
1078,555
1079,555
1080,555
1081,555
1082,555
1083,555
1084,560
1085,568
1086,574
1087,578
1088,579
1089,579
1090,582
1091,582
1092,581
1093,582
1094,582
1095,583
1096,582
1097,582
1098,581
1099,582
1100,583
1101,583
1102,583
1103,582
1104,582
1105,583
1106,584
1107,582
1108,580
1109,579
1110,577
1111,574
1112,575
1113,575
1114,576
1115,583
1116,585
1117,588
1118,587
1119,585
1120,582
1121,578
1122,574
1123,572
1124,573
1125,567
1126,560
1127,559
1128,557
1129,556
1130,555
1131,555
1132,551
1133,551
1134,548
1135,545
1136,542
1137,540
1138,540
1139,538
1140,537
1141,534
1142,531
1143,530
1144,531
1145,530
1146,526
1147,521
1148,514
1149,509
1150,510
1151,510
1152,505
1153,500
1154,497
1155,492
1156,488
1157,487
1158,487
1159,489
1160,490
1161,488
1162,486
1163,483
1164,476
1165,476
1166,476
1167,474
1168,471
1169,468
1170,469
1171,468
1172,468
1173,467
1174,465
1175,465
1176,462
1177,461
1178,459
1179,458
1180,457
1181,452
1182,453
1183,453
1184,452
1185,452
1186,453
1187,455
1188,454
1189,452
1190,450
1191,448
1192,445
1193,441
1194,441
1195,441
1196,441
1197,443
1198,443
1199,442
1200,443
1201,441
1202,440
1203,438
1204,435
1205,435
1206,440
1207,447
1208,450
1209,452
1210,451
1211,447
1212,449
1213,449
1214,449
1215,449
1216,449
1217,449
1218,451
1219,451
1220,451
1221,449
1222,451
1223,453
1224,451
1225,453
1226,454
1227,456
1228,459
1229,460
1230,459
1231,459
1232,457
1233,459
1234,460
1235,462
1236,462
1237,465
1238,469
1239,469
1240,471
1241,475
1242,476
1243,470
1244,466
1245,471
1246,475
1247,476
1248,473
1249,472
1250,472
1251,471
1252,472
1253,472
1254,472
1255,474
1256,472
1257,474
1258,473
1259,472
1260,473
1261,476
1262,476
1263,476
1264,478
1265,478
1266,476
1267,477
1268,478
1269,479
1270,480
1271,482
1272,484
1273,484
1274,482
1275,479
1276,476
1277,475
1278,475
1279,478
1280,486
1281,488
1282,488
1283,488
1284,485
1285,488
1286,489
1287,490
1288,489
1289,488
1290,489
1291,487
1292,486
1293,485
1294,481
1295,482
1296,482
1297,483
1298,484
1299,484
1300,488
1301,491
1302,494
1303,493
1304,493
1305,492
1306,491
1307,489
1308,484
1309,483
1310,487
1311,488
1312,490
1313,493
1314,491
1315,491
1316,487
1317,484
1318,483
1319,483
1320,486
1321,487
1322,483
1323,483
1324,485
1325,484
1326,481
1327,480
1328,480
1329,480
1330,487
1331,490
1332,491
1333,489
1334,484
1335,486
1336,486
1337,488
1338,488
1339,486
1340,486
1341,487
1342,488
1343,484
1344,486
1345,488
1346,489
1347,489
1348,486
1349,482
1350,480
1351,481
1352,481
1353,481
1354,482
1355,482
1356,478
1357,479
1358,485
1359,489
1360,488
1361,486
1362,487
1363,489
1364,492
1365,496
1366,497
1367,499
1368,503
1369,500
1370,495
1371,489
1372,488
1373,487
1374,486
1375,488
1376,487
1377,488
1378,488
1379,487
1380,490
1381,492
1382,489
1383,492
1384,498
1385,499
1386,498
1387,499
1388,500
1389,499
1390,500
1391,499
1392,500
1393,500
1394,499
1395,499
1396,501
1397,502
1398,503
1399,503
1400,503
1401,502
1402,503
1403,506
1404,507
1405,508
1406,505
1407,501
1408,498
1409,493
1410,491
1411,488
1412,492
1413,494
1414,493
1415,493
1416,495
1417,497
1418,496
1419,495
1420,494
1421,492
1422,494
1423,498
1424,500
1425,498
1426,494
1427,492
1428,494
1429,493
1430,494
1431,492
1432,490
1433,493
1434,494
1435,495
1436,497
1437,499
1438,498
1439,494
1440,493
1441,492
1442,493
1443,499
1444,503
1445,504
1446,502
1447,500
1448,502
1449,500
1450,500
1451,499
1452,498
1453,497
1454,497
1455,500
1456,496
1457,493
1458,494
1459,496
1460,498
1461,498
1462,503
1463,508
1464,511
1465,515
1466,515
1467,515
1468,511
1469,509
1470,509
1471,508
1472,506
1473,506
1474,505
1475,506
1476,504
1477,502
1478,498
1479,499
1480,499
1481,502
1482,504
1483,502
1484,500
1485,504
1486,504
1487,505
1488,505
1489,503
1490,505
1491,505
1492,507
1493,508
1494,508
1495,505
1496,501
1497,500
1498,502
1499,501
1500,499
1501,500
1502,501
1503,503
1504,504
1505,507
1506,506
1507,505
1508,502
1509,502
1510,504
1511,506
1512,510
1513,517
1514,521
1515,520
1516,516
1517,512
1518,512
1519,511
1520,509
1521,507
1522,505
1523,504
1524,506
1525,509
1526,510
1527,508
1528,509
1529,509
1530,507
1531,506
1532,505
1533,504
1534,504
1535,505
1536,510
1537,515
1538,519
1539,521
1540,520
1541,521
1542,523
1543,522
1544,521
1545,520
1546,518
1547,518
1548,517
1549,516
1550,514
1551,514
1552,515
1553,516
1554,516
1555,516
1556,516
1557,515
1558,516
1559,516
1560,517
1561,516
1562,515
1563,515
1564,513
1565,515
1566,519
1567,522
1568,522
1569,522
1570,525
1571,526
1572,523
1573,520
1574,521
1575,521
1576,521
1577,522
1578,520
1579,519
1580,521
1581,517
1582,513
1583,515
1584,518
1585,521
1586,522
1587,521
1588,523
1589,526
1590,525
1591,524
1592,522
1593,517
1594,516
1595,515
1596,513
1597,514
1598,513
1599,513
1600,513
1601,512
1602,511
1603,513
1604,512
1605,514
1606,514
1607,513
1608,513
1609,514
1610,514
1611,512
1612,510
1613,509
1614,507
1615,504
1616,500
1617,497
1618,495
1619,493
1620,493
1621,497
1622,501
1623,504
1624,505
1625,508
1626,508
1627,506
1628,503
1629,505
1630,507
1631,505
1632,505
1633,503
1634,500
1635,500
1636,500
1637,502
1638,499
1639,496
1640,495
1641,496
1642,496
1643,496
1644,499
1645,504
1646,506
1647,506
1648,504
1649,498
1650,498
1651,497
1652,497
1653,497
1654,493
1655,491
1656,492
1657,496
1658,496
1659,496
1660,497
1661,496
1662,494
1663,493
1664,490
1665,492
1666,495
1667,494
1668,490
1669,493
1670,499
1671,501
1672,504
1673,506
1674,508
1675,508
1676,511
1677,520
1678,528
1679,540
1680,549
1681,559
1682,574
1683,589
1684,604
1685,617
1686,629
1687,642
1688,655
1689,666
1690,681
1691,695
1692,710
1693,719
1694,724
1695,729
1696,727
1697,728
1698,729
1699,723
1700,718
1701,707
1702,697
1703,684
1704,667
1705,655
1706,641
1707,627
1708,611
1709,594
1710,577
1711,554
1712,531
1713,507
1714,484
1715,466
1716,448
1717,430
1718,409
1719,396
1720,389
1721,384
1722,382
1723,377
1724,374
1725,372
1726,372
1727,377
1728,379
1729,385
1730,391
1731,393
1732,399
1733,409
1734,415
1735,422
1736,428
1737,436
1738,440
1739,442
1740,446
1741,451
1742,455
1743,458
1744,460
1745,464
1746,471
1747,477
1748,481
1749,483
1750,486
1751,484
1752,483
1753,481
1754,475
1755,472
1756,475
1757,478
1758,476
1759,477
1760,481
1761,484
1762,484
1763,483
1764,484
1765,489
1766,487
1767,489
1768,491
1769,490
1770,492
1771,492
1772,493
1773,493
1774,493
1775,493
1776,491
1777,492
1778,491
1779,491
1780,495
1781,495
1782,496
1783,498
1784,499
1785,501
1786,501
1787,500
1788,499
1789,499
1790,498
1791,498
1792,501
1793,502
1794,499
1795,501
1796,502
1797,501
1798,499
1799,498
1800,501
1801,501
1802,505
1803,506
1804,504
1805,506
1806,508
1807,511
1808,511
1809,510
1810,509
1811,509
1812,511
1813,513
1814,512
1815,510
1816,512
1817,512
1818,508
1819,502
1820,503
1821,505
1822,507
1823,506
1824,507
1825,510
1826,510
1827,510
1828,508
1829,508
1830,513
1831,515
1832,520
1833,518
1834,515
1835,520
1836,520
1837,520
1838,517
1839,518
1840,520
1841,520
1842,521
1843,524
1844,526
1845,528
1846,526
1847,527
1848,528
1849,527
1850,527
1851,527
1852,531
1853,530
1854,528
1855,533
1856,535
1857,536
1858,537
1859,537
1860,540
1861,542
1862,542
1863,543
1864,544
1865,547
1866,548
1867,549
1868,549
1869,551
1870,558
1871,560
1872,565
1873,567
1874,567
1875,567
1876,571
1877,574
1878,572
1879,572
1880,574
1881,573
1882,569
1883,567
1884,568
1885,569
1886,569
1887,571
1888,569
1889,569
1890,577
1891,579
1892,583
1893,585
1894,585
1895,591
1896,593
1897,591
1898,589
1899,590
1900,591
1901,587
1902,583
1903,582
1904,579
1905,580
1906,578
1907,578
1908,578
1909,579
1910,583
1911,581
1912,580
1913,579
1914,580
1915,578
1916,577
1917,575
1918,569
1919,563
1920,560
1921,557
1922,555
1923,553
1924,552
1925,549
1926,547
1927,551
1928,556
1929,558
1930,552
1931,545
1932,540
1933,537
1934,532
1935,529
1936,527
1937,528
1938,527
1939,525
1940,523
1941,520
1942,519
1943,516
1944,513
1945,508
1946,501
1947,496
1948,492
1949,488
1950,490
1951,492
1952,487
1953,483
1954,481
1955,480
1956,479
1957,479
1958,478
1959,478
1960,478
1961,475
1962,472
1963,470
1964,467
1965,463
1966,456
1967,454
1968,458
1969,459
1970,462
1971,464
1972,467
1973,467
1974,464
1975,463
1976,462
1977,459
1978,457
1979,457
1980,459
1981,456
1982,454
1983,449
1984,444
1985,443
1986,441
1987,438
1988,435
1989,437
1990,437
1991,435
1992,439
1993,439
1994,437
1995,435
1996,434
1997,435
1998,436
1999,435
