timestamp,signal
0,461
1,461
2,464
3,468
4,472
5,472
6,469
7,470
8,470
9,471
10,472
11,470
12,468
13,470
14,471
15,476
16,477
17,478
18,483
19,487
20,487
21,486
22,485
23,489
24,487
25,485
26,482
27,483
28,480
29,483
30,487
31,486
32,484
33,485
34,486
35,485
36,482
37,481
38,482
39,477
40,475
41,479
42,481
43,477
44,473
45,470
46,476
47,479
48,477
49,479
50,487
51,491
52,496
53,496
54,494
55,494
56,495
57,496
58,494
59,495
60,494
61,486
62,491
63,494
64,497
65,498
66,496
67,492
68,493
69,494
70,492
71,484
72,481
73,484
74,487
75,494
76,499
77,501
78,500
79,494
80,493
81,492
82,489
83,490
84,493
85,501
86,502
87,504
88,504
89,499
90,494
91,487
92,484
93,480
94,480
95,483
96,485
97,491
98,491
99,496
100,499
101,499
102,499
103,501
104,500
105,501
106,502
107,504
108,510
109,511
110,510
111,501
112,497
113,500
114,499
115,496
116,489
117,489
118,496
119,498
120,500
121,504
122,506
123,508
124,508
125,510
126,510
127,510
128,507
129,502
130,498
131,498
132,505
133,508
134,509
135,512
136,512
137,511
138,508
139,507
140,510
141,513
142,513
143,510
144,506
145,503
146,497
147,502
148,504
149,502
150,506
151,511
152,512
153,509
154,508
155,511
156,515
157,518
158,518
159,516
160,519
161,516
162,513
163,513
164,518
165,520
166,519
167,515
168,518
169,522
170,523
171,518
172,513
173,514
174,515
175,516
176,517
177,516
178,518
179,519
180,522
181,524
182,532
183,535
184,534
185,534
186,534
187,534
188,530
189,531
190,530
191,525
192,518
193,514
194,509
195,507
196,505
197,510
198,517
199,519
200,521
201,520
202,518
203,517
204,510
205,508
206,508
207,506
208,509
209,513
210,516
211,512
212,510
213,504
214,499
215,504
216,504
217,505
218,505
219,507
220,515
221,517
222,511
223,510
224,510
225,513
226,514
227,513
228,512
229,512
230,511
231,508
232,507
233,509
234,509
235,511
236,514
237,514
238,513
239,511
240,511
241,507
242,505
243,504
244,501
245,503
246,502
247,504
248,508
249,514
250,520
251,523
252,523
253,519
254,510
255,508
256,508
257,507
258,500
259,493
260,489
261,491
262,495
263,499
264,499
265,503
266,503
267,507
268,510
269,510
270,508
271,507
272,504
273,506
274,511
275,520
276,521
277,524
278,534
279,542
280,542
281,546
282,553
283,557
284,572
285,593
286,609
287,623
288,637
289,648
290,663
291,673
292,685
293,698
294,707
295,715
296,716
297,713
298,711
299,713
300,714
301,710
302,705
303,696
304,681
305,665
306,647
307,634
308,621
309,605
310,588
311,572
312,552
313,529
314,504
315,479
316,459
317,442
318,422
319,409
320,401
321,393
322,396
323,399
324,399
325,399
326,397
327,394
328,397
329,399
330,403
331,404
332,407
333,409
334,416
335,428
336,433
337,439
338,442
339,443
340,446
341,448
342,450
343,453
344,458
345,466
346,467
347,474
348,478
349,480
350,480
351,482
352,487
353,490
354,493
355,495
356,496
357,496
358,497
359,497
360,496
361,493
362,493
363,488
364,480
365,485
366,497
367,501
368,503
369,504
370,508
371,508
372,511
373,512
374,510
375,508
376,503
377,501
378,502
379,503
380,504
381,500
382,499
383,497
384,494
385,496
386,502
387,504
388,504
389,505
390,501
391,499
392,501
393,501
394,505
395,508
396,511
397,513
398,514
399,514
400,510
401,508
402,510
403,510
404,511
405,517
406,515
407,514
408,512
409,510
410,513
411,512
412,515
413,517
414,521
415,523
416,523
417,521
418,517
419,515
420,517
421,515
422,518
423,522
424,524
425,525
426,524
427,520
428,521
429,520
430,518
431,515
432,512
433,513
434,515
435,518
436,519
437,524
438,529
439,532
440,534
441,532
442,531
443,529
444,529
445,532
446,530
447,527
448,528
449,527
450,528
451,524
452,522
453,528
454,536
455,543
456,545
457,546
458,547
459,544
460,543
461,542
462,538
463,535
464,536
465,543
466,550
467,552
468,557
469,558
470,563
471,569
472,573
473,571
474,571
475,571
476,573
477,577
478,580
479,576
480,573
481,573
482,573
483,571
484,572
485,576
486,582
487,585
488,585
489,586
490,590
491,589
492,587
493,585
494,583
495,588
496,593
497,599
498,599
499,597
500,599
501,601
502,606
503,609
504,611
505,611
506,602
507,593
508,588
509,583
510,582
511,576
512,573
513,576
514,575
515,580
516,581
517,583
518,584
519,585
520,584
521,585
522,588
523,587
524,579
525,576
526,573
527,572
528,568
529,566
530,561
531,553
532,551
533,548
534,541
535,534
536,531
537,532
538,529
539,525
540,523
541,522
542,513
543,510
544,504
545,503
546,501
547,498
548,498
549,496
550,494
551,484
552,476
553,467
554,465
555,469
556,472
557,472
558,474
559,475
560,475
561,476
562,475
563,477
564,475
565,476
566,473
567,468
568,463
569,460
570,461
571,459
572,459
573,456
574,452
575,449
576,447
577,448
578,446
579,442
580,439
581,436
582,437
583,436
584,437
585,438
586,434
587,434
588,435
589,437
590,444
591,445
592,451
593,448
594,441
595,441
596,438
597,437
598,434
599,432
600,436
601,436
602,435
603,432
604,430
605,427
606,423
607,425
608,426
609,431
610,438
611,440
612,441
613,443
614,439
615,439
616,437
617,434
618,435
619,435
620,438
621,443
622,445
623,446
624,446
625,447
626,447
627,449
628,450
629,449
630,453
631,455
632,454
633,452
634,450
635,450
636,451
637,452
638,456
639,463
640,467
641,469
642,467
643,467
644,470
645,470
646,466
647,461
648,461
649,466
650,472
651,474
652,472
653,471
654,469
655,470
656,471
657,472
658,471
659,470
660,471
661,472
662,470
663,469
664,466
665,464
666,459
667,460
668,466
669,470
670,474
671,475
672,478
673,475
674,476
675,477
676,478
677,480
678,484
679,479
680,476
681,476
682,474
683,478
684,477
685,479
686,477
687,481
688,486
689,489
690,492
691,490
692,488
693,487
694,485
695,484
696,483
697,481
698,483
699,486
700,481
701,476
702,474
703,472
704,473
705,477
706,480
707,483
708,487
709,490
710,491
711,492
712,495
713,494
714,492
715,492
716,489
717,487
718,487
719,484
720,483
721,482
722,481
723,485
724,487
725,488
726,482
727,477
728,472
729,471
730,473
731,475
732,476
733,480
734,482
735,490
736,493
737,495
738,496
739,495
740,496
741,493
742,494
743,493
744,490
745,491
746,490
747,487
748,485
749,484
750,483
751,488
752,495
753,497
754,499
755,501
756,499
757,499
758,496
759,492
760,493
761,493
762,491
763,490
764,490
765,491
766,488
767,487
768,486
769,486
770,487
771,486
772,486
773,485
774,487
775,492
776,495
777,496
778,495
779,496
780,497
781,499
782,502
783,505
784,504
785,503
786,504
787,511
788,514
789,510
790,508
791,509
792,508
793,510
794,511
795,509
796,509
797,508
798,504
799,499
800,496
801,493
802,492
803,492
804,493
805,498
806,502
807,508
808,511
809,512
810,516
811,518
812,519
813,518
814,516
815,516
816,514
817,512
818,508
819,504
820,503
821,504
822,505
823,505
824,506
825,507
826,505
827,505
828,507
829,508
830,507
831,509
832,512
833,511
834,508
835,502
836,497
837,493
838,494
839,494
840,497
841,497
842,496
843,496
844,497
845,501
846,500
847,499
848,499
849,497
850,493
851,492
852,495
853,493
854,493
855,496
856,499
857,503
858,504
859,501
860,500
861,499
862,499
863,496
864,497
865,500
866,503
867,508
868,508
869,505
870,503
871,499
872,500
873,499
874,497
875,495
876,493
877,492
878,492
879,494
880,493
881,492
882,497
883,498
884,495
885,491
886,489
887,492
888,489
889,489
890,492
891,493
892,492
893,487
894,484
895,487
896,486
897,488
898,487
899,487
900,488
901,486
902,488
903,491
904,490
905,494
906,497
907,503
908,504
909,503
910,505
911,510
912,517
913,526
914,536
915,548
916,558
917,572
918,587
919,601
920,611
921,621
922,633
923,643
924,654
925,667
926,672
927,687
928,702
929,710
930,721
931,729
932,733
933,729
934,723
935,717
936,707
937,693
938,677
939,665
940,655
941,639
942,622
943,603
944,586
945,568
946,547
947,528
948,507
949,486
950,466
951,447
952,432
953,416
954,403
955,393
956,388
957,387
958,385
959,386
960,387
961,385
962,388
963,390
964,393
965,400
966,401
967,400
968,401
969,404
970,408
971,414
972,423
973,429
974,432
975,438
976,439
977,443
978,449
979,452
980,454
981,453
982,458
983,462
984,468
985,472
986,475
987,476
988,476
989,476
990,477
991,481
992,487
993,488
994,488
995,489
996,487
997,485
998,488
999,492
1000,495
1001,494
1002,495
1003,495
1004,494
1005,493
1006,489
1007,489
1008,489
1009,492
1010,496
1011,490
1012,488
1013,494
1014,494
1015,496
1016,498
1017,500
1018,500
1019,492
1020,482
1021,479
1022,484
1023,488
1024,493
1025,501
1026,501
1027,502
1028,499
1029,500
1030,504
1031,503
1032,504
1033,506
1034,505
1035,504
1036,502
1037,503
1038,504
1039,505
1040,508
1041,510
1042,510
1043,508
1044,506
1045,506
1046,504
1047,506
1048,508
1049,506
1050,506
1051,506
1052,508
1053,507
1054,508
1055,511
1056,514
1057,515
1058,515
1059,515
1060,519
1061,520
1062,522
1063,524
1064,520
1065,515
1066,512
1067,510
1068,508
1069,505
1070,506
1071,508
1072,515
1073,519
1074,519
1075,522
1076,522
1077,526
1078,531
1079,531
1080,529
1081,526
1082,525
1083,526
1084,529
1085,531
1086,529
1087,529
1088,526
1089,524
1090,528
1091,531
1092,536
1093,542
1094,541
1095,542
1096,544
1097,543
1098,549
1099,553
1100,552
1101,550
1102,551
1103,551
1104,549
1105,553
1106,556
1107,560
1108,562
1109,565
1110,569
1111,567
1112,569
1113,571
1114,572
1115,574
1116,575
1117,580
1118,583
1119,583
1120,585
1121,582
1122,584
1123,586
1124,588
1125,593
1126,593
1127,597
1128,600
1129,597
1130,595
1131,591
1132,585
1133,583
1134,584
1135,588
1136,586
1137,585
1138,583
1139,584
1140,582
1141,579
1142,582
1143,585
1144,588
1145,592
1146,588
1147,583
1148,582
1149,581
1150,579
1151,575
1152,574
1153,573
1154,570
1155,570
1156,567
1157,566
1158,562
1159,560
1160,560
1161,556
1162,552
1163,546
1164,540
1165,538
1166,535
1167,534
1168,531
1169,527
1170,524
1171,519
1172,519
1173,516
1174,513
1175,507
1176,503
1177,500
1178,496
1179,493
1180,497
1181,499
1182,502
1183,505
1184,507
1185,507
1186,498
1187,495
1188,495
1189,489
1190,485
1191,477
1192,476
1193,475
1194,470
1195,464
1196,463
1197,463
1198,460
1199,457
1200,458
1201,456
1202,460
1203,459
1204,455
1205,454
1206,452
1207,450
1208,448
1209,448
1210,449
1211,446
1212,446
1213,445
1214,440
1215,438
1216,436
1217,436
1218,436
1219,440
1220,445
1221,440
1222,440
1223,440
1224,440
1225,440
1226,437
1227,435
1228,433
1229,432
1230,431
1231,432
1232,431
1233,431
1234,430
1235,432
1236,434
1237,436
1238,439
1239,439
1240,441
1241,436
1242,436
1243,435
1244,433
1245,439
1246,442
1247,444
1248,442
1249,440
1250,441
1251,440
1252,437
1253,431
1254,429
1255,429
1256,428
1257,429
1258,431
1259,432
1260,441
1261,445
1262,450
1263,455
1264,460
1265,464
1266,465
1267,464
1268,463
1269,462
1270,464
1271,468
1272,469
1273,466
1274,464
1275,464
1276,461
1277,463
1278,461
1279,461
1280,464
1281,468
1282,473
1283,473
1284,470
1285,472
1286,477
1287,478
1288,472
1289,468
1290,464
1291,464
1292,468
1293,467
1294,470
1295,471
1296,471
1297,471
1298,468
1299,469
1300,470
1301,470
1302,472
1303,470
1304,473
1305,480
1306,481
1307,482
1308,483
1309,484
1310,486
1311,482
1312,483
1313,483
1314,481
1315,481
1316,481
1317,480
1318,483
1319,485
1320,485
1321,484
1322,484
1323,484
1324,478
1325,478
1326,476
1327,474
1328,472
1329,472
1330,475
1331,478
1332,489
1333,498
1334,500
1335,497
1336,494
1337,492
1338,492
1339,492
1340,495
1341,493
1342,493
1343,495
1344,496
1345,493
1346,491
1347,492
1348,494
1349,495
1350,497
1351,494
1352,492
1353,487
1354,486
1355,487
1356,485
1357,485
1358,487
1359,491
1360,493
1361,492
1362,489
1363,488
1364,487
1365,487
1366,488
1367,491
1368,490
1369,487
1370,487
1371,485
1372,489
1373,491
1374,487
1375,484
1376,485
1377,487
1378,489
1379,491
1380,492
1381,492
1382,493
1383,492
1384,490
1385,486
1386,484
1387,482
1388,484
1389,486
1390,488
1391,490
1392,494
1393,494
1394,494
1395,495
1396,495
1397,495
1398,493
1399,487
1400,490
1401,496
1402,502
1403,505
1404,510
1405,512
1406,508
1407,505
1408,502
1409,500
1410,500
1411,495
1412,496
1413,499
1414,495
1415,494
1416,494
1417,494
1418,496
1419,495
1420,493
1421,491
1422,492
1423,493
1424,496
1425,498
1426,499
1427,500
1428,505
1429,508
1430,511
1431,507
1432,506
1433,505
1434,503
1435,502
1436,499
1437,497
1438,496
1439,499
1440,504
1441,504
1442,505
1443,507
1444,508
1445,513
1446,520
1447,520
1448,515
1449,514
1450,513
1451,514
1452,513
1453,511
1454,507
1455,506
1456,509
1457,512
1458,514
1459,516
1460,521
1461,519
1462,517
1463,515
1464,514
1465,514
1466,514
1467,511
1468,508
1469,505
1470,500
1471,496
1472,497
1473,499
1474,504
1475,511
1476,515
1477,515
1478,515
1479,514
1480,515
1481,513
1482,511
1483,512
1484,509
1485,508
1486,509
1487,506
1488,505
1489,503
1490,500
1491,502
1492,503
1493,504
1494,505
1495,505
1496,500
1497,495
1498,495
1499,495
1500,502
1501,505
1502,503
1503,500
1504,499
1505,497
1506,498
1507,498
1508,500
1509,501
1510,501
1511,496
1512,493
1513,493
1514,497
1515,503
1516,504
1517,500
1518,497
1519,497
1520,500
1521,503
1522,507
1523,506
1524,507
1525,507
1526,506
1527,506
1528,498
1529,496
1530,500
1531,503
1532,503
1533,503
1534,502
1535,502
1536,498
1537,493
1538,488
1539,487
1540,493
1541,494
1542,496
1543,499
1544,503
1545,507
1546,508
1547,509
1548,510
1549,513
1550,519
1551,520
1552,526
1553,535
1554,546
1555,558
1556,570
1557,584
1558,596
1559,605
1560,616
1561,630
1562,644
1563,655
1564,668
1565,685
1566,699
1567,713
1568,723
1569,732
1570,737
1571,736
1572,734
1573,731
1574,726
1575,719
1576,708
1577,697
1578,684
1579,667
1580,654
1581,639
1582,623
1583,607
1584,593
1585,575
1586,556
1587,534
1588,508
1589,484
1590,467
1591,451
1592,435
1593,419
1594,410
1595,401
1596,396
1597,392
1598,391
1599,389
1600,386
1601,387
1602,390
1603,394
1604,403
1605,414
1606,420
1607,427
1608,431
1609,433
1610,433
1611,431
1612,432
1613,435
1614,438
1615,443
1616,447
1617,454
1618,460
1619,465
1620,469
1621,471
1622,470
1623,470
1624,472
1625,478
1626,482
1627,485
1628,487
1629,488
1630,491
1631,496
1632,497
1633,493
1634,489
1635,487
1636,483
1637,479
1638,477
1639,480
1640,481
1641,480
1642,481
1643,482
1644,484
1645,489
1646,492
1647,495
1648,499
1649,499
1650,501
1651,504
1652,506
1653,504
1654,504
1655,507
1656,505
1657,502
1658,498
1659,493
1660,494
1661,495
1662,495
1663,499
1664,497
1665,492
1666,491
1667,495
1668,497
1669,497
1670,500
1671,500
1672,500
1673,498
1674,496
1675,500
1676,502
1677,504
1678,504
1679,504
1680,507
1681,505
1682,506
1683,504
1684,506
1685,513
1686,512
1687,511
1688,514
1689,519
1690,522
1691,521
1692,521
1693,519
1694,519
1695,521
1696,522
1697,519
1698,516
1699,516
1700,519
1701,521
1702,518
1703,518
1704,517
1705,518
1706,517
1707,516
1708,515
1709,514
1710,519
1711,521
1712,523
1713,524
1714,521
1715,523
1716,525
1717,524
1718,524
1719,523
1720,522
1721,524
1722,527
1723,527
1724,527
1725,527
1726,527
1727,529
1728,527
1729,526
1730,527
1731,527
1732,531
1733,533
1734,532
1735,529
1736,527
1737,529
1738,530
1739,537
1740,547
1741,552
1742,554
1743,556
1744,556
1745,558
1746,560
1747,563
1748,565
1749,564
1750,566
1751,564
1752,561
1753,560
1754,556
1755,555
1756,559
1757,567
1758,571
1759,574
1760,574
1761,571
1762,580
1763,588
1764,585
1765,588
1766,590
1767,589
1768,586
1769,582
1770,582
1771,579
1772,581
1773,583
1774,584
1775,590
1776,591
1777,593
1778,595
1779,596
1780,598
1781,594
1782,594
1783,591
1784,583
1785,577
1786,576
1787,573
1788,571
1789,570
1790,567
1791,566
1792,565
1793,564
1794,564
1795,565
1796,565
1797,560
1798,559
1799,559
1800,556
1801,552
1802,551
1803,546
1804,540
1805,538
1806,534
1807,529
1808,525
1809,524
1810,523
1811,520
1812,522
1813,522
1814,521
1815,520
1816,515
1817,513
1818,512
1819,507
1820,505
1821,502
1822,502
1823,500
1824,494
1825,491
1826,490
1827,488
1828,486
1829,482
1830,485
1831,480
1832,478
1833,479
1834,479
1835,479
1836,479
1837,476
1838,473
1839,470
1840,467
1841,465
1842,463
1843,461
1844,458
1845,457
1846,454
1847,451
1848,452
1849,453
1850,455
1851,453
1852,451
1853,449
1854,447
1855,448
1856,447
1857,444
1858,444
1859,444
1860,447
1861,445
1862,444
1863,443
1864,442
1865,441
1866,438
1867,438
1868,439
1869,439
1870,441
1871,440
1872,440
1873,440
1874,441
1875,445
1876,447
1877,447
1878,447
1879,446
1880,446
1881,446
1882,446
1883,449
1884,448
1885,448
1886,446
1887,445
1888,447
1889,449
1890,452
1891,451
1892,449
1893,450
1894,449
1895,449
1896,449
1897,452
1898,452
1899,447
1900,444
1901,443
1902,444
1903,447
1904,452
1905,457
1906,458
1907,465
1908,471
1909,472
1910,471
1911,469
1912,470
1913,474
1914,476
1915,473
1916,471
1917,473
1918,473
1919,475
1920,476
1921,476
1922,475
1923,470
1924,473
1925,475
1926,472
1927,472
1928,473
1929,473
1930,476
1931,476
1932,478
1933,482
1934,486
1935,485
1936,483
1937,483
1938,482
1939,478
1940,476
1941,478
1942,480
1943,482
1944,483
1945,487
1946,486
1947,485
1948,482
1949,483
1950,488
1951,489
1952,487
1953,486
1954,485
1955,484
1956,484
1957,485
1958,488
1959,488
1960,487
1961,481
1962,480
1963,480
1964,481
1965,483
1966,480
1967,478
1968,479
1969,480
1970,483
1971,483
1972,481
1973,481
1974,481
1975,483
1976,486
1977,487
1978,487
1979,488
1980,492
1981,492
1982,493
1983,491
1984,490
1985,489
1986,488
1987,488
1988,489
1989,487
1990,489
1991,489
1992,491
1993,490
1994,488
1995,490
1996,489
1997,486
1998,484
1999,491
