timestamp,signal
0,534
1,533
2,530
3,527
4,522
5,518
6,516
7,515
8,512
9,509
10,506
11,503
12,499
13,495
14,491
15,486
16,481
17,478
18,476
19,475
20,478
21,481
22,482
23,484
24,489
25,498
26,507
27,513
28,515
29,513
30,508
31,506
32,510
33,517
34,519
35,519
36,518
37,512
38,505
39,500
40,494
41,491
42,491
43,496
44,494
45,488
46,485
47,483
48,482
49,484
50,489
51,497
52,501
53,504
54,508
55,512
56,515
57,520
58,523
59,519
60,513
61,510
62,512
63,515
64,512
65,509
66,504
67,499
68,495
69,491
70,489
71,484
72,478
73,474
74,473
75,477
76,483
77,490
78,498
79,503
80,506
81,509
82,513
83,519
84,524
85,532
86,541
87,553
88,571
89,591
90,609
91,628
92,647
93,664
94,685
95,709
96,729
97,749
98,764
99,777
100,791
101,800
102,807
103,803
104,793
105,787
106,777
107,766
108,753
109,738
110,722
111,703
112,683
113,662
114,636
115,607
116,576
117,547
118,522
119,499
120,477
121,455
122,435
123,416
124,402
125,389
126,383
127,381
128,382
129,381
130,379
131,380
132,385
133,389
134,394
135,398
136,400
137,403
138,407
139,411
140,417
141,421
142,420
143,423
144,427
145,431
146,436
147,442
148,448
149,454
150,455
151,458
152,460
153,462
154,463
155,462
156,462
157,463
158,465
159,467
160,470
161,468
162,466
163,465
164,464
165,465
166,467
167,475
168,480
169,484
170,484
171,486
172,487
173,489
174,490
175,492
176,497
177,499
178,500
179,501
180,499
181,498
182,499
183,500
184,502
185,506
186,507
187,505
188,502
189,494
190,486
191,480
192,482
193,487
194,491
195,490
196,491
197,490
198,495
199,499
200,504
201,504
202,503
203,501
204,501
205,504
206,507
207,511
208,515
209,512
210,507
211,502
212,501
213,499
214,496
215,493
216,492
217,493
218,493
219,496
220,499
221,499
222,501
223,503
224,506
225,509
226,511
227,511
228,509
229,506
230,501
231,498
232,499
233,498
234,498
235,501
236,505
237,511
238,515
239,514
240,516
241,522
242,528
243,533
244,536
245,539
246,537
247,533
248,529
249,529
250,531
251,529
252,523
253,516
254,517
255,521
256,522
257,518
258,513
259,514
260,514
261,516
262,516
263,518
264,518
265,519
266,524
267,529
268,531
269,535
270,538
271,540
272,539
273,532
274,530
275,531
276,534
277,541
278,547
279,550
280,551
281,551
282,552
283,552
284,550
285,549
286,552
287,558
288,561
289,560
290,559
291,557
292,557
293,557
294,554
295,551
296,551
297,551
298,549
299,546
300,542
301,536
302,530
303,528
304,532
305,540
306,549
307,552
308,554
309,558
310,559
311,563
312,573
313,580
314,581
315,581
316,579
317,578
318,580
319,584
320,587
321,586
322,584
323,582
324,580
325,579
326,580
327,577
328,575
329,577
330,581
331,581
332,579
333,578
334,578
335,583
336,587
337,587
338,586
339,585
340,584
341,585
342,588
343,588
344,588
345,585
346,580
347,576
348,574
349,570
350,568
351,563
352,558
353,554
354,549
355,547
356,546
357,544
358,542
359,540
360,538
361,537
362,536
363,536
364,534
365,532
366,530
367,527
368,519
369,514
370,510
371,503
372,496
373,489
374,480
375,473
376,470
377,467
378,467
379,473
380,480
381,488
382,492
383,490
384,489
385,489
386,491
387,489
388,487
389,484
390,480
391,477
392,476
393,473
394,470
395,468
396,463
397,455
398,448
399,442
400,435
401,430
402,423
403,419
404,414
405,409
406,407
407,407
408,415
409,424
410,428
411,431
412,432
413,433
414,434
415,435
416,435
417,436
418,436
419,436
420,435
421,435
422,436
423,432
424,430
425,427
426,421
427,417
428,414
429,411
430,409
431,408
432,406
433,402
434,398
435,395
436,393
437,394
438,400
439,405
440,407
441,408
442,411
443,420
444,432
445,443
446,450
447,454
448,456
449,453
450,451
451,452
452,450
453,448
454,448
455,447
456,444
457,437
458,430
459,425
460,422
461,420
462,420
463,419
464,424
465,435
466,446
467,451
468,453
469,455
470,457
471,460
472,462
473,465
474,467
475,468
476,470
477,471
478,470
479,467
480,465
481,463
482,462
483,465
484,467
485,466
486,463
487,458
488,455
489,455
490,452
491,449
492,448
493,448
494,450
495,451
496,451
497,451
498,456
499,464
500,470
501,472
502,475
503,477
504,481
505,488
506,494
507,496
508,497
509,494
510,491
511,487
512,487
513,486
514,481
515,477
516,474
517,472
518,471
519,468
520,466
521,465
522,463
523,465
524,469
525,471
526,473
527,475
528,479
529,481
530,481
531,481
532,483
533,491
534,498
535,502
536,504
537,507
538,508
539,507
540,504
541,504
542,507
543,505
544,505
545,504
546,498
547,494
548,494
549,497
550,501
551,502
552,503
553,503
554,502
555,502
556,499
557,498
558,497
559,495
560,495
561,492
562,493
563,498
564,502
565,503
566,499
567,496
568,493
569,490
570,491
571,495
572,500
573,498
574,496
575,497
576,494
577,488
578,482
579,478
580,478
581,479
582,479
583,480
584,480
585,481
586,482
587,481
588,483
589,490
590,497
591,501
592,504
593,507
594,508
595,506
596,503
597,502
598,504
599,508
600,513
601,515
602,514
603,514
604,513
605,511
606,511
607,513
608,514
609,515
610,515
611,516
612,515
613,514
614,513
615,512
616,510
617,508
618,506
619,503
620,498
621,497
622,494
623,494
624,494
625,494
626,491
627,489
628,486
629,480
630,476
631,480
632,486
633,492
634,501
635,508
636,512
637,516
638,517
639,518
640,517
641,516
642,514
643,511
644,508
645,505
646,502
647,500
648,500
649,495
650,490
651,490
652,491
653,491
654,491
655,496
656,504
657,507
658,508
659,508
660,506
661,504
662,503
663,504
664,503
665,500
666,499
667,500
668,507
669,510
670,512
671,515
672,518
673,518
674,518
675,519
676,521
677,524
678,524
679,523
680,524
681,523
682,519
683,516
684,516
685,515
686,515
687,512
688,507
689,504
690,501
691,498
692,494
693,489
694,485
695,484
696,489
697,498
698,508
699,514
700,515
701,516
702,514
703,510
704,507
705,506
706,511
707,519
708,522
709,523
710,526
711,524
712,518
713,516
714,512
715,510
716,513
717,515
718,515
719,513
720,515
721,516
722,515
723,516
724,518
725,519
726,519
727,518
728,516
729,511
730,509
731,505
732,501
733,500
734,499
735,496
736,491
737,491
738,495
739,499
740,501
741,503
742,508
743,515
744,524
745,531
746,537
747,541
748,542
749,542
750,544
751,544
752,544
753,544
754,541
755,538
756,535
757,531
758,529
759,528
760,527
761,524
762,521
763,518
764,513
765,510
766,511
767,513
768,513
769,515
770,513
771,513
772,512
773,511
774,510
775,508
776,505
777,503
778,503
779,506
780,510
781,513
782,517
783,520
784,518
785,510
786,508
787,510
788,515
789,519
790,522
791,517
792,511
793,503
794,497
795,498
796,497
797,497
798,495
799,494
800,493
801,493
802,492
803,488
804,482
805,483
806,485
807,489
808,495
809,501
810,509
811,516
812,521
813,525
814,525
815,521
816,516
817,514
818,513
819,517
820,522
821,527
822,525
823,521
824,519
825,519
826,517
827,514
828,511
829,508
830,505
831,504
832,503
833,502
834,499
835,495
836,488
837,484
838,481
839,480
840,478
841,478
842,479
843,478
844,479
845,479
846,481
847,484
848,485
849,487
850,490
851,496
852,505
853,509
854,510
855,513
856,515
857,520
858,530
859,541
860,554
861,572
862,588
863,606
864,628
865,651
866,673
867,690
868,705
869,722
870,742
871,761
872,777
873,784
874,786
875,788
876,792
877,792
878,789
879,785
880,780
881,771
882,758
883,737
884,716
885,696
886,675
887,655
888,633
889,606
890,577
891,548
892,520
893,492
894,464
895,435
896,409
897,392
898,383
899,377
900,374
901,374
902,376
903,383
904,391
905,398
906,404
907,411
908,416
909,421
910,423
911,427
912,429
913,430
914,431
915,435
916,439
917,447
918,454
919,458
920,460
921,458
922,456
923,458
924,459
925,463
926,470
927,471
928,467
929,466
930,466
931,469
932,471
933,475
934,478
935,480
936,482
937,483
938,482
939,480
940,480
941,478
942,476
943,477
944,476
945,473
946,472
947,471
948,473
949,479
950,480
951,482
952,483
953,489
954,494
955,494
956,494
957,494
958,494
959,492
960,491
961,489
962,488
963,487
964,488
965,489
966,486
967,484
968,483
969,483
970,483
971,482
972,483
973,487
974,491
975,492
976,494
977,496
978,497
979,504
980,510
981,514
982,516
983,519
984,521
985,521
986,515
987,509
988,506
989,507
990,507
991,505
992,501
993,498
994,496
995,495
996,494
997,491
998,489
999,491
1000,490
1001,492
1002,499
1003,504
1004,513
1005,521
1006,524
1007,525
1008,522
1009,520
1010,522
1011,523
1012,523
1013,519
1014,515
1015,514
1016,513
1017,510
1018,507
1019,502
1020,499
1021,498
1022,498
1023,500
1024,504
1025,508
1026,510
1027,511
1028,512
1029,512
1030,513
1031,515
1032,518
1033,526
1034,534
1035,536
1036,540
1037,545
1038,546
1039,547
1040,548
1041,549
1042,549
1043,546
1044,544
1045,542
1046,537
1047,533
1048,532
1049,532
1050,536
1051,540
1052,544
1053,546
1054,547
1055,545
1056,544
1057,543
1058,543
1059,543
1060,542
1061,544
1062,545
1063,545
1064,550
1065,553
1066,555
1067,556
1068,556
1069,551
1070,544
1071,538
1072,535
1073,539
1074,543
1075,545
1076,549
1077,552
1078,554
1079,553
1080,554
1081,557
1082,561
1083,564
1084,565
1085,564
1086,564
1087,566
1088,568
1089,571
1090,574
1091,576
1092,579
1093,582
1094,586
1095,588
1096,588
1097,585
1098,583
1099,583
1100,583
1101,580
1102,575
1103,570
1104,567
1105,563
1106,560
1107,558
1108,558
1109,562
1110,566
1111,570
1112,571
1113,572
1114,576
1115,579
1116,581
1117,583
1118,582
1119,581
1120,581
1121,582
1122,579
1123,573
1124,565
1125,559
1126,555
1127,555
1128,552
1129,547
1130,542
1131,540
1132,541
1133,543
1134,545
1135,544
1136,540
1137,536
1138,532
1139,529
1140,527
1141,525
1142,520
1143,516
1144,515
1145,512
1146,506
1147,500
1148,495
1149,488
1150,481
1151,472
1152,463
1153,455
1154,449
1155,449
1156,452
1157,454
1158,456
1159,456
1160,457
1161,458
1162,457
1163,455
1164,455
1165,456
1166,455
1167,457
1168,456
1169,455
1170,452
1171,447
1172,444
1173,446
1174,447
1175,450
1176,451
1177,451
1178,450
1179,449
1180,451
1181,451
1182,448
1183,442
1184,439
1185,432
1186,426
1187,423
1188,419
1189,419
1190,417
1191,415
1192,412
1193,412
1194,414
1195,415
1196,417
1197,421
1198,424
1199,424
1200,424
1201,426
1202,428
1203,432
1204,434
1205,433
1206,431
1207,431
1208,433
1209,432
1210,432
1211,434
1212,432
1213,428
1214,423
1215,422
1216,421
1217,421
1218,420
1219,421
1220,421
1221,419
1222,414
1223,411
1224,411
1225,414
1226,413
1227,412
1228,420
1229,433
1230,443
1231,448
1232,449
1233,450
1234,451
1235,451
1236,448
1237,446
1238,446
1239,447
1240,447
1241,447
1242,448
1243,452
1244,454
1245,456
1246,457
1247,457
1248,457
1249,456
1250,459
1251,463
1252,466
1253,468
1254,468
1255,469
1256,469
1257,470
1258,472
1259,471
1260,469
1261,468
1262,467
1263,466
1264,462
1265,459
1266,457
1267,460
1268,460
1269,456
1270,457
1271,460
1272,463
1273,465
1274,467
1275,470
1276,476
1277,480
1278,483
1279,483
1280,482
1281,482
1282,480
1283,477
1284,474
1285,471
1286,468
1287,464
1288,463
1289,463
1290,463
1291,461
1292,459
1293,462
1294,468
1295,476
1296,484
1297,489
1298,494
1299,501
1300,505
1301,507
1302,508
1303,507
1304,504
1305,499
1306,494
1307,492
1308,497
1309,505
1310,511
1311,512
1312,510
1313,508
1314,505
1315,504
1316,503
1317,501
1318,499
1319,497
1320,493
1321,490
1322,487
1323,481
1324,476
1325,467
1326,464
1327,465
1328,465
1329,468
1330,474
1331,482
1332,486
1333,491
1334,498
1335,507
1336,512
1337,513
1338,513
1339,517
1340,518
1341,520
1342,522
1343,521
1344,519
1345,514
1346,510
1347,508
1348,505
1349,500
1350,496
1351,494
1352,492
1353,488
1354,482
1355,480
1356,478
1357,480
1358,483
1359,485
1360,489
1361,495
1362,498
1363,499
1364,499
1365,502
1366,505
1367,505
1368,505
1369,506
1370,512
1371,514
1372,512
1373,506
1374,499
1375,495
1376,494
1377,492
1378,491
1379,488
1380,485
1381,484
1382,487
1383,497
1384,503
1385,505
1386,509
1387,513
1388,515
1389,515
1390,514
1391,515
1392,514
1393,513
1394,511
1395,510
1396,509
1397,509
1398,510
1399,511
1400,509
1401,506
1402,504
1403,505
1404,510
1405,514
1406,515
1407,512
1408,510
1409,507
1410,506
1411,507
1412,508
1413,509
1414,508
1415,505
1416,503
1417,499
1418,496
1419,493
1420,494
1421,492
1422,489
1423,491
1424,488
1425,486
1426,486
1427,485
1428,481
1429,479
1430,483
1431,492
1432,499
1433,502
1434,501
1435,501
1436,505
1437,513
1438,520
1439,522
1440,521
1441,519
1442,517
1443,515
1444,511
1445,509
1446,507
1447,506
1448,505
1449,502
1450,499
1451,497
1452,496
1453,496
1454,497
1455,496
1456,495
1457,499
1458,504
1459,507
1460,509
1461,511
1462,513
1463,514
1464,516
1465,517
1466,518
1467,516
1468,515
1469,515
1470,516
1471,516
1472,515
1473,512
1474,509
1475,506
1476,503
1477,501
1478,498
1479,496
1480,496
1481,500
1482,507
1483,512
1484,513
1485,517
1486,519
1487,521
1488,519
1489,519
1490,520
1491,520
1492,517
1493,515
1494,513
1495,511
1496,508
1497,510
1498,513
1499,515
1500,511
1501,509
1502,505
1503,503
1504,503
1505,499
1506,495
1507,498
1508,506
1509,511
1510,510
1511,508
1512,502
1513,496
1514,493
1515,490
1516,486
1517,483
1518,482
1519,481
1520,484
1521,487
1522,490
1523,496
1524,503
1525,508
1526,513
1527,515
1528,518
1529,522
1530,528
1531,534
1532,533
1533,535
1534,536
1535,534
1536,532
1537,529
1538,530
1539,532
1540,532
1541,532
1542,533
1543,533
1544,534
1545,533
1546,529
1547,524
1548,520
1549,514
1550,508
1551,504
1552,504
1553,505
1554,505
1555,507
1556,510
1557,512
1558,511
1559,514
1560,520
1561,526
1562,528
1563,529
1564,531
1565,531
1566,531
1567,531
1568,531
1569,531
1570,530
1571,528
1572,523
1573,518
1574,511
1575,505
1576,504
1577,505
1578,503
1579,501
1580,501
1581,503
1582,505
1583,507
1584,508
1585,512
1586,514
1587,516
1588,516
1589,519
1590,523
1591,527
1592,527
1593,530
1594,533
1595,531
1596,525
1597,518
1598,512
1599,508
1600,504
1601,498
1602,492
1603,491
1604,490
1605,490
1606,489
1607,492
1608,496
1609,497
1610,496
1611,498
1612,502
1613,511
1614,519
1615,523
1616,523
1617,523
1618,524
1619,523
1620,522
1621,520
1622,516
1623,512
1624,507
1625,503
1626,502
1627,502
1628,504
1629,506
1630,507
1631,508
1632,506
1633,503
1634,501
1635,501
1636,499
1637,496
1638,496
1639,498
1640,501
1641,504
1642,505
1643,505
1644,507
1645,507
1646,504
1647,499
1648,493
1649,489
1650,485
1651,486
1652,488
1653,488
1654,486
1655,483
1656,480
1657,476
1658,477
1659,484
1660,489
1661,492
1662,494
1663,497
1664,502
1665,504
1666,503
1667,503
1668,504
1669,510
1670,519
1671,534
1672,548
1673,562
1674,580
1675,600
1676,618
1677,636
1678,655
1679,674
1680,695
1681,718
1682,741
1683,759
1684,769
1685,784
1686,799
1687,810
1688,818
1689,823
1690,818
1691,808
1692,796
1693,782
1694,770
1695,755
1696,737
1697,716
1698,695
1699,673
1700,649
1701,624
1702,599
1703,574
1704,545
1705,515
1706,489
1707,461
1708,434
1709,417
1710,406
1711,398
1712,390
1713,382
1714,379
1715,382
1716,384
1717,387
1718,389
1719,393
1720,398
1721,400
1722,402
1723,404
1724,409
1725,417
1726,422
1727,426
1728,431
1729,436
1730,443
1731,448
1732,448
1733,448
1734,449
1735,448
1736,447
1737,447
1738,448
1739,449
1740,449
1741,452
1742,457
1743,464
1744,468
1745,471
1746,472
1747,476
1748,477
1749,475
1750,472
1751,474
1752,478
1753,479
1754,476
1755,478
1756,479
1757,478
1758,472
1759,465
1760,462
1761,457
1762,456
1763,458
1764,461
1765,469
1766,478
1767,483
1768,487
1769,489
1770,490
1771,491
1772,494
1773,495
1774,497
1775,499
1776,497
1777,495
1778,492
1779,489
1780,487
1781,485
1782,480
1783,476
1784,478
1785,480
1786,477
1787,474
1788,470
1789,465
1790,464
1791,467
1792,473
1793,481
1794,489
1795,497
1796,503
1797,508
1798,513
1799,515
1800,512
1801,509
1802,505
1803,502
1804,501
1805,498
1806,495
1807,495
1808,496
1809,496
1810,494
1811,494
1812,492
1813,493
1814,496
1815,502
1816,509
1817,511
1818,508
1819,504
1820,502
1821,504
1822,509
1823,513
1824,515
1825,517
1826,515
1827,512
1828,512
1829,510
1830,508
1831,506
1832,506
1833,502
1834,497
1835,497
1836,500
1837,501
1838,502
1839,504
1840,505
1841,505
1842,507
1843,515
1844,521
1845,524
1846,522
1847,522
1848,520
1849,521
1850,521
1851,520
1852,520
1853,522
1854,526
1855,532
1856,534
1857,534
1858,535
1859,536
1860,538
1861,540
1862,540
1863,539
1864,537
1865,541
1866,541
1867,539
1868,536
1869,534
1870,534
1871,536
1872,538
1873,539
1874,540
1875,542
1876,543
1877,545
1878,547
1879,547
1880,546
1881,546
1882,544
1883,542
1884,539
1885,538
1886,537
1887,540
1888,544
1889,548
1890,554
1891,560
1892,565
1893,567
1894,568
1895,568
1896,565
1897,562
1898,560
1899,558
1900,553
1901,548
1902,546
1903,543
1904,545
1905,549
1906,551
1907,553
1908,558
1909,564
1910,570
1911,577
1912,581
1913,581
1914,582
1915,582
1916,583
1917,585
1918,585
1919,580
1920,575
1921,572
1922,571
1923,569
1924,568
1925,564
1926,560
1927,559
1928,558
1929,558
1930,559
1931,559
1932,558
1933,558
1934,558
1935,556
1936,557
1937,558
1938,558
1939,561
1940,562
1941,563
1942,563
1943,561
1944,560
1945,559
1946,556
1947,553
1948,546
1949,541
1950,536
1951,529
1952,520
1953,510
1954,502
1955,498
1956,498
1957,498
1958,497
1959,496
1960,494
1961,493
1962,492
1963,496
1964,498
1965,498
1966,496
1967,493
1968,488
1969,486
1970,485
1971,485
1972,483
1973,482
1974,481
1975,478
1976,470
1977,465
1978,459
1979,455
1980,451
1981,447
1982,442
1983,440
1984,439
1985,437
1986,435
1987,435
1988,437
1989,440
1990,442
1991,442
1992,442
1993,442
1994,443
1995,444
1996,443
1997,439
1998,435
1999,434
