timestamp,signal
0,523
1,520
2,517
3,516
4,514
5,510
6,506
7,501
8,496
9,494
10,492
11,492
12,492
13,492
14,491
15,491
16,492
17,495
18,499
19,501
20,505
21,510
22,511
23,512
24,514
25,516
26,513
27,508
28,504
29,502
30,503
31,503
32,503
33,503
34,500
35,499
36,496
37,490
38,489
39,492
40,499
41,506
42,513
43,517
44,516
45,516
46,516
47,515
48,515
49,516
50,518
51,519
52,519
53,518
54,514
55,511
56,507
57,503
58,500
59,500
60,500
61,500
62,501
63,501
64,502
65,502
66,501
67,501
68,499
69,495
70,490
71,489
72,487
73,484
74,483
75,481
76,478
77,473
78,472
79,472
80,473
81,476
82,479
83,482
84,490
85,495
86,498
87,501
88,507
89,513
90,521
91,529
92,540
93,554
94,573
95,594
96,615
97,635
98,655
99,679
100,703
101,726
102,748
103,764
104,777
105,792
106,806
107,819
108,827
109,831
110,834
111,827
112,815
113,798
114,782
115,766
116,748
117,726
118,705
119,683
120,661
121,635
122,603
123,569
124,537
125,507
126,485
127,461
128,436
129,412
130,393
131,384
132,379
133,376
134,372
135,368
136,368
137,370
138,375
139,382
140,387
141,394
142,396
143,403
144,409
145,415
146,419
147,422
148,426
149,431
150,441
151,448
152,453
153,457
154,459
155,460
156,459
157,457
158,457
159,455
160,451
161,446
162,443
163,441
164,446
165,451
166,454
167,456
168,460
169,463
170,468
171,472
172,474
173,475
174,477
175,477
176,477
177,476
178,476
179,476
180,477
181,476
182,476
183,476
184,477
185,478
186,476
187,472
188,469
189,466
190,465
191,459
192,451
193,450
194,453
195,455
196,461
197,469
198,472
199,477
200,487
201,495
202,501
203,507
204,510
205,511
206,511
207,510
208,507
209,504
210,503
211,503
212,502
213,502
214,501
215,499
216,497
217,498
218,502
219,501
220,499
221,497
222,499
223,503
224,504
225,503
226,504
227,506
228,507
229,509
230,510
231,509
232,510
233,511
234,511
235,512
236,511
237,508
238,505
239,503
240,500
241,500
242,499
243,499
244,499
245,500
246,498
247,496
248,494
249,492
250,492
251,492
252,494
253,497
254,498
255,496
256,497
257,500
258,504
259,507
260,507
261,504
262,509
263,517
264,525
265,529
266,531
267,531
268,530
269,529
270,529
271,531
272,532
273,532
274,533
275,532
276,529
277,526
278,522
279,517
280,511
281,508
282,508
283,513
284,522
285,535
286,544
287,551
288,557
289,559
290,560
291,561
292,562
293,562
294,560
295,559
296,557
297,556
298,552
299,550
300,550
301,552
302,555
303,557
304,559
305,560
306,560
307,562
308,563
309,560
310,558
311,558
312,559
313,559
314,558
315,558
316,557
317,558
318,558
319,559
320,562
321,563
322,565
323,568
324,567
325,568
326,568
327,565
328,561
329,559
330,558
331,560
332,562
333,561
334,559
335,557
336,556
337,556
338,554
339,551
340,551
341,550
342,551
343,556
344,558
345,560
346,566
347,575
348,580
349,582
350,582
351,583
352,585
353,588
354,588
355,588
356,585
357,580
358,571
359,560
360,556
361,556
362,560
363,564
364,561
365,557
366,553
367,555
368,555
369,553
370,551
371,549
372,548
373,545
374,544
375,540
376,531
377,525
378,521
379,519
380,515
381,510
382,510
383,510
384,508
385,507
386,507
387,505
388,500
389,496
390,489
391,482
392,475
393,469
394,465
395,463
396,460
397,453
398,446
399,440
400,437
401,435
402,434
403,432
404,432
405,432
406,433
407,433
408,433
409,432
410,432
411,432
412,432
413,431
414,429
415,426
416,425
417,427
418,428
419,430
420,431
421,429
422,429
423,428
424,425
425,417
426,410
427,409
428,415
429,422
430,431
431,440
432,444
433,445
434,443
435,442
436,439
437,431
438,422
439,416
440,419
441,425
442,432
443,439
444,437
445,434
446,431
447,429
448,429
449,429
450,428
451,428
452,428
453,433
454,437
455,443
456,445
457,444
458,443
459,443
460,443
461,442
462,442
463,440
464,438
465,438
466,437
467,434
468,435
469,440
470,446
471,450
472,452
473,450
474,448
475,447
476,444
477,440
478,435
479,437
480,441
481,443
482,443
483,442
484,443
485,445
486,446
487,448
488,447
489,446
490,446
491,444
492,442
493,442
494,445
495,452
496,456
497,459
498,463
499,467
500,467
501,467
502,467
503,463
504,465
505,466
506,463
507,462
508,465
509,471
510,472
511,472
512,472
513,472
514,474
515,478
516,480
517,478
518,474
519,477
520,486
521,495
522,500
523,502
524,503
525,503
526,502
527,498
528,492
529,485
530,481
531,481
532,479
533,477
534,473
535,474
536,480
537,486
538,488
539,492
540,495
541,495
542,496
543,498
544,499
545,496
546,496
547,496
548,496
549,496
550,497
551,498
552,496
553,491
554,489
555,487
556,486
557,487
558,488
559,489
560,492
561,493
562,493
563,493
564,492
565,490
566,486
567,481
568,479
569,479
570,479
571,480
572,481
573,480
574,478
575,478
576,477
577,481
578,488
579,496
580,502
581,503
582,503
583,505
584,510
585,513
586,515
587,515
588,512
589,508
590,505
591,505
592,503
593,500
594,495
595,491
596,491
597,495
598,501
599,506
600,507
601,504
602,498
603,493
604,488
605,486
606,486
607,488
608,490
609,495
610,499
611,504
612,509
613,512
614,513
615,515
616,518
617,519
618,518
619,515
620,511
621,505
622,504
623,503
624,503
625,504
626,508
627,508
628,508
629,504
630,498
631,497
632,497
633,499
634,501
635,503
636,503
637,504
638,505
639,504
640,500
641,496
642,494
643,492
644,487
645,485
646,484
647,486
648,490
649,492
650,495
651,500
652,502
653,499
654,496
655,495
656,498
657,505
658,514
659,519
660,523
661,524
662,525
663,526
664,524
665,521
666,518
667,512
668,505
669,500
670,495
671,492
672,492
673,491
674,491
675,490
676,487
677,485
678,487
679,488
680,492
681,498
682,508
683,518
684,524
685,526
686,527
687,528
688,528
689,526
690,523
691,519
692,518
693,517
694,515
695,515
696,515
697,517
698,518
699,518
700,518
701,517
702,514
703,511
704,511
705,514
706,516
707,515
708,513
709,510
710,508
711,505
712,503
713,502
714,499
715,493
716,487
717,483
718,482
719,483
720,487
721,491
722,497
723,500
724,502
725,511
726,519
727,520
728,518
729,519
730,519
731,518
732,519
733,521
734,527
735,530
736,528
737,524
738,520
739,517
740,515
741,513
742,511
743,508
744,503
745,501
746,502
747,506
748,510
749,513
750,513
751,513
752,513
753,513
754,518
755,524
756,526
757,529
758,532
759,535
760,537
761,539
762,541
763,543
764,544
765,544
766,544
767,542
768,536
769,533
770,532
771,532
772,530
773,526
774,525
775,526
776,525
777,524
778,523
779,519
780,515
781,512
782,511
783,512
784,511
785,511
786,511
787,509
788,506
789,503
790,503
791,504
792,505
793,508
794,511
795,512
796,511
797,514
798,518
799,516
800,513
801,511
802,509
803,510
804,514
805,516
806,512
807,508
808,505
809,503
810,502
811,501
812,503
813,504
814,499
815,498
816,501
817,504
818,505
819,505
820,504
821,502
822,499
823,496
824,494
825,495
826,499
827,503
828,502
829,499
830,495
831,496
832,501
833,506
834,512
835,515
836,514
837,514
838,513
839,511
840,508
841,507
842,505
843,502
844,499
845,498
846,499
847,499
848,503
849,507
850,509
851,510
852,509
853,505
854,501
855,496
856,493
857,489
858,487
859,489
860,495
861,497
862,499
863,504
864,509
865,511
866,513
867,518
868,525
869,538
870,555
871,573
872,589
873,602
874,619
875,638
876,655
877,670
878,688
879,710
880,729
881,745
882,758
883,774
884,787
885,801
886,812
887,813
888,807
889,795
890,783
891,768
892,752
893,733
894,712
895,690
896,667
897,642
898,616
899,588
900,562
901,538
902,516
903,495
904,471
905,446
906,423
907,404
908,389
909,381
910,375
911,372
912,374
913,376
914,376
915,379
916,384
917,391
918,397
919,402
920,408
921,414
922,420
923,427
924,435
925,444
926,448
927,454
928,460
929,467
930,472
931,474
932,477
933,478
934,478
935,478
936,476
937,474
938,473
939,475
940,473
941,470
942,466
943,465
944,464
945,462
946,460
947,460
948,460
949,465
950,471
951,478
952,484
953,487
954,487
955,489
956,491
957,494
958,496
959,494
960,494
961,494
962,491
963,487
964,486
965,484
966,483
967,481
968,482
969,484
970,483
971,481
972,480
973,481
974,483
975,485
976,486
977,487
978,485
979,485
980,483
981,479
982,477
983,477
984,479
985,486
986,492
987,496
988,500
989,502
990,503
991,504
992,506
993,509
994,513
995,517
996,518
997,518
998,516
999,514
1000,511
1001,508
1002,504
1003,500
1004,497
1005,496
1006,496
1007,497
1008,499
1009,500
1010,500
1011,497
1012,495
1013,496
1014,502
1015,506
1016,511
1017,516
1018,518
1019,517
1020,518
1021,516
1022,513
1023,516
1024,523
1025,530
1026,535
1027,537
1028,538
1029,536
1030,532
1031,527
1032,521
1033,515
1034,510
1035,509
1036,508
1037,507
1038,510
1039,513
1040,516
1041,516
1042,515
1043,515
1044,515
1045,515
1046,518
1047,521
1048,523
1049,522
1050,524
1051,526
1052,527
1053,527
1054,527
1055,530
1056,536
1057,544
1058,548
1059,550
1060,551
1061,551
1062,549
1063,544
1064,540
1065,537
1066,538
1067,537
1068,539
1069,539
1070,539
1071,543
1072,546
1073,545
1074,543
1075,540
1076,536
1077,540
1078,544
1079,551
1080,556
1081,560
1082,560
1083,562
1084,565
1085,566
1086,563
1087,560
1088,559
1089,557
1090,558
1091,559
1092,557
1093,552
1094,551
1095,554
1096,560
1097,567
1098,572
1099,577
1100,584
1101,588
1102,591
1103,591
1104,591
1105,588
1106,584
1107,581
1108,577
1109,575
1110,574
1111,573
1112,571
1113,570
1114,568
1115,566
1116,563
1117,560
1118,558
1119,558
1120,557
1121,557
1122,556
1123,558
1124,564
1125,570
1126,573
1127,577
1128,580
1129,580
1130,580
1131,579
1132,576
1133,574
1134,573
1135,569
1136,563
1137,560
1138,552
1139,546
1140,542
1141,538
1142,532
1143,527
1144,527
1145,531
1146,534
1147,536
1148,535
1149,533
1150,530
1151,526
1152,520
1153,515
1154,512
1155,511
1156,508
1157,503
1158,497
1159,494
1160,492
1161,492
1162,492
1163,491
1164,487
1165,486
1166,484
1167,485
1168,489
1169,493
1170,489
1171,489
1172,485
1173,479
1174,470
1175,459
1176,452
1177,446
1178,435
1179,428
1180,425
1181,424
1182,424
1183,424
1184,425
1185,429
1186,433
1187,439
1188,442
1189,448
1190,450
1191,451
1192,451
1193,451
1194,451
1195,450
1196,447
1197,445
1198,443
1199,439
1200,436
1201,434
1202,433
1203,431
1204,427
1205,427
1206,428
1207,428
1208,427
1209,425
1210,425
1211,428
1212,433
1213,438
1214,441
1215,443
1216,444
1217,442
1218,439
1219,438
1220,437
1221,437
1222,436
1223,435
1224,433
1225,433
1226,432
1227,432
1228,430
1229,427
1230,426
1231,426
1232,425
1233,424
1234,422
1235,419
1236,415
1237,411
1238,403
1239,400
1240,402
1241,404
1242,409
1243,414
1244,422
1245,432
1246,441
1247,449
1248,455
1249,457
1250,457
1251,459
1252,461
1253,461
1254,459
1255,459
1256,459
1257,456
1258,454
1259,452
1260,454
1261,459
1262,463
1263,465
1264,466
1265,467
1266,465
1267,468
1268,471
1269,471
1270,468
1271,468
1272,472
1273,476
1274,479
1275,482
1276,486
1277,489
1278,487
1279,484
1280,482
1281,480
1282,477
1283,476
1284,474
1285,474
1286,475
1287,473
1288,473
1289,473
1290,475
1291,482
1292,487
1293,488
1294,488
1295,489
1296,486
1297,485
1298,485
1299,485
1300,483
1301,481
1302,479
1303,475
1304,472
1305,475
1306,474
1307,470
1308,463
1309,457
1310,455
1311,459
1312,464
1313,466
1314,466
1315,468
1316,472
1317,476
1318,482
1319,487
1320,489
1321,490
1322,491
1323,496
1324,499
1325,496
1326,494
1327,490
1328,488
1329,490
1330,492
1331,495
1332,497
1333,498
1334,499
1335,502
1336,507
1337,511
1338,511
1339,513
1340,515
1341,515
1342,514
1343,514
1344,515
1345,512
1346,510
1347,508
1348,505
1349,502
1350,499
1351,498
1352,498
1353,498
1354,496
1355,494
1356,491
1357,487
1358,485
1359,484
1360,487
1361,487
1362,489
1363,492
1364,494
1365,495
1366,497
1367,498
1368,500
1369,502
1370,505
1371,507
1372,504
1373,502
1374,502
1375,503
1376,499
1377,494
1378,494
1379,496
1380,499
1381,499
1382,496
1383,491
1384,483
1385,478
1386,474
1387,470
1388,472
1389,478
1390,481
1391,483
1392,487
1393,493
1394,500
1395,505
1396,506
1397,506
1398,509
1399,511
1400,513
1401,514
1402,515
1403,514
1404,512
1405,513
1406,514
1407,515
1408,515
1409,516
1410,514
1411,508
1412,506
1413,505
1414,505
1415,507
1416,508
1417,505
1418,502
1419,499
1420,499
1421,498
1422,497
1423,496
1424,495
1425,496
1426,496
1427,499
1428,500
1429,502
1430,505
1431,506
1432,506
1433,507
1434,510
1435,511
1436,510
1437,509
1438,509
1439,510
1440,508
1441,507
1442,505
1443,503
1444,500
1445,496
1446,492
1447,496
1448,503
1449,506
1450,507
1451,508
1452,511
1453,513
1454,514
1455,514
1456,513
1457,513
1458,515
1459,515
1460,513
1461,507
1462,499
1463,495
1464,492
1465,490
1466,487
1467,484
1468,482
1469,485
1470,491
1471,493
1472,490
1473,485
1474,486
1475,492
1476,496
1477,504
1478,512
1479,516
1480,516
1481,514
1482,513
1483,512
1484,512
1485,514
1486,514
1487,513
1488,514
1489,517
1490,519
1491,518
1492,517
1493,515
1494,513
1495,512
1496,512
1497,514
1498,514
1499,514
1500,514
1501,515
1502,518
1503,521
1504,521
1505,524
1506,526
1507,525
1508,525
1509,525
1510,524
1511,522
1512,521
1513,519
1514,516
1515,514
1516,511
1517,508
1518,506
1519,505
1520,503
1521,502
1522,503
1523,504
1524,504
1525,506
1526,507
1527,507
1528,505
1529,504
1530,507
1531,514
1532,518
1533,519
1534,519
1535,518
1536,513
1537,510
1538,511
1539,513
1540,515
1541,512
1542,503
1543,493
1544,487
1545,482
1546,483
1547,484
1548,491
1549,501
1550,508
1551,516
1552,523
1553,523
1554,520
1555,520
1556,523
1557,528
1558,531
1559,533
1560,532
1561,529
1562,529
1563,529
1564,527
1565,527
1566,528
1567,532
1568,536
1569,536
1570,533
1571,528
1572,523
1573,523
1574,527
1575,528
1576,526
1577,523
1578,518
1579,515
1580,513
1581,511
1582,509
1583,509
1584,510
1585,510
1586,510
1587,511
1588,508
1589,506
1590,503
1591,502
1592,504
1593,506
1594,505
1595,506
1596,506
1597,508
1598,508
1599,503
1600,504
1601,510
1602,513
1603,513
1604,512
1605,513
1606,516
1607,517
1608,517
1609,515
1610,513
1611,512
1612,510
1613,507
1614,505
1615,504
1616,501
1617,497
1618,493
1619,489
1620,486
1621,480
1622,476
1623,475
1624,478
1625,478
1626,477
1627,476
1628,478
1629,484
1630,492
1631,497
1632,499
1633,504
1634,511
1635,515
1636,516
1637,516
1638,516
1639,511
1640,507
1641,507
1642,507
1643,504
1644,499
1645,497
1646,496
1647,496
1648,497
1649,498
1650,499
1651,501
1652,504
1653,505
1654,508
1655,508
1656,507
1657,504
1658,502
1659,500
1660,500
1661,501
1662,500
1663,497
1664,495
1665,499
1666,514
1667,534
1668,553
1669,575
1670,597
1671,616
1672,635
1673,655
1674,679
1675,699
1676,718
1677,737
1678,758
1679,777
1680,791
1681,802
1682,813
1683,822
1684,825
1685,824
1686,815
1687,803
1688,790
1689,775
1690,755
1691,735
1692,708
1693,678
1694,648
1695,621
1696,587
1697,555
1698,531
1699,508
1700,484
1701,463
1702,440
1703,420
1704,402
1705,384
1706,374
1707,371
1708,375
1709,379
1710,382
1711,385
1712,391
1713,397
1714,401
1715,405
1716,408
1717,412
1718,418
1719,425
1720,433
1721,438
1722,444
1723,449
1724,455
1725,456
1726,457
1727,457
1728,455
1729,455
1730,452
1731,450
1732,448
1733,448
1734,450
1735,454
1736,455
1737,456
1738,456
1739,455
1740,457
1741,461
1742,466
1743,472
1744,481
1745,488
1746,493
1747,496
1748,497
1749,499
1750,499
1751,499
1752,498
1753,494
1754,490
1755,489
1756,487
1757,486
1758,482
1759,478
1760,475
1761,471
1762,463
1763,463
1764,464
1765,467
1766,472
1767,476
1768,480
1769,483
1770,483
1771,485
1772,487
1773,488
1774,489
1775,491
1776,495
1777,497
1778,496
1779,495
1780,497
1781,500
1782,503
1783,500
1784,495
1785,490
1786,487
1787,485
1788,484
1789,483
1790,480
1791,475
1792,475
1793,477
1794,480
1795,485
1796,486
1797,488
1798,490
1799,492
1800,494
1801,493
1802,493
1803,495
1804,496
1805,496
1806,496
1807,497
1808,497
1809,499
1810,503
1811,506
1812,508
1813,509
1814,512
1815,515
1816,515
1817,516
1818,519
1819,523
1820,524
1821,523
1822,519
1823,515
1824,515
1825,515
1826,516
1827,517
1828,518
1829,517
1830,517
1831,520
1832,523
1833,525
1834,526
1835,527
1836,527
1837,526
1838,527
1839,531
1840,530
1841,527
1842,526
1843,524
1844,522
1845,519
1846,513
1847,502
1848,492
1849,486
1850,490
1851,498
1852,506
1853,511
1854,513
1855,516
1856,518
1857,521
1858,526
1859,531
1860,536
1861,543
1862,551
1863,559
1864,563
1865,566
1866,568
1867,566
1868,562
1869,560
1870,559
1871,555
1872,551
1873,550
1874,547
1875,546
1876,543
1877,539
1878,536
1879,535
1880,535
1881,535
1882,534
1883,537
1884,543
1885,553
1886,561
1887,566
1888,564
1889,563
1890,564
1891,566
1892,569
1893,570
1894,569
1895,569
1896,569
1897,572
1898,575
1899,576
1900,575
1901,569
1902,567
1903,566
1904,563
1905,564
1906,564
1907,566
1908,568
1909,569
1910,571
1911,575
1912,579
1913,580
1914,582
1915,585
1916,584
1917,579
1918,577
1919,576
1920,575
1921,574
1922,572
1923,570
1924,566
1925,563
1926,560
1927,556
1928,554
1929,552
1930,551
1931,549
1932,544
1933,537
1934,531
1935,527
1936,524
1937,519
1938,513
1939,513
1940,517
1941,522
1942,529
1943,530
1944,529
1945,527
1946,526
1947,520
1948,512
1949,509
1950,508
1951,510
1952,513
1953,510
1954,509
1955,509
1956,509
1957,506
1958,503
1959,501
1960,499
1961,500
1962,501
1963,497
1964,494
1965,492
1966,492
1967,492
1968,492
1969,492
1970,492
1971,488
1972,484
1973,479
1974,475
1975,469
1976,463
1977,461
1978,460
1979,462
1980,461
1981,461
1982,459
1983,454
1984,449
1985,447
1986,445
1987,440
1988,436
1989,436
1990,435
1991,435
1992,435
1993,439
1994,440
1995,440
1996,440
1997,439
1998,438
1999,435
