timestamp,signal
0,463
1,457
2,440
3,437
4,446
5,458
6,470
7,479
8,487
9,504
10,506
11,503
12,504
13,513
14,530
15,533
16,549
17,572
18,589
19,600
20,583
21,576
22,579
23,578
24,584
25,567
26,547
27,542
28,541
29,548
30,549
31,546
32,552
33,570
34,587
35,596
36,590
37,575
38,566
39,563
40,553
41,559
42,564
43,575
44,581
45,582
46,577
47,548
48,519
49,502
50,478
51,481
52,489
53,497
54,511
55,521
56,543
57,566
58,582
59,586
60,558
61,538
62,522
63,500
64,487
65,467
66,459
67,464
68,470
69,484
70,483
71,492
72,497
73,489
74,477
75,471
76,459
77,446
78,454
79,470
80,470
81,468
82,454
83,451
84,444
85,430
86,430
87,431
88,442
89,443
90,443
91,452
92,462
93,471
94,488
95,486
96,477
97,481
98,498
99,517
100,518
101,527
102,523
103,506
104,489
105,480
106,476
107,475
108,478
109,474
110,463
111,465
112,472
113,475
114,489
115,498
116,506
117,505
118,508
119,523
120,534
121,559
122,568
123,563
124,551
125,531
126,536
127,542
128,539
129,550
130,551
131,540
132,524
133,518
134,515
135,516
136,495
137,479
138,485
139,500
140,514
141,523
142,519
143,519
144,516
145,512
146,523
147,529
148,528
149,513
150,487
151,476
152,478
153,476
154,481
155,470
156,462
157,472
158,503
159,511
160,487
161,482
162,490
163,509
164,534
165,534
166,533
167,519
168,492
169,490
170,489
171,495
172,499
173,501
174,507
175,507
176,512
177,516
178,523
179,533
180,526
181,538
182,546
183,548
184,557
185,562
186,572
187,582
188,576
189,562
190,537
191,535
192,547
193,558
194,567
195,567
196,558
197,531
198,511
199,498
200,466
201,451
202,459
203,479
204,510
205,513
206,508
207,496
208,478
209,474
210,471
211,487
212,503
213,527
214,542
215,532
216,515
217,497
218,476
219,459
220,447
221,463
222,477
223,487
224,504
225,502
226,507
227,523
228,541
229,554
230,558
231,560
232,556
233,558
234,556
235,543
236,542
237,553
238,559
239,565
240,558
241,547
242,538
243,535
244,554
245,561
246,569
247,566
248,553
249,534
250,510
251,510
252,518
253,526
254,551
255,550
256,552
257,553
258,545
259,533
260,513
261,517
262,515
263,499
264,491
265,498
266,528
267,531
268,511
269,504
270,503
271,515
272,527
273,510
274,487
275,475
276,472
277,477
278,463
279,448
280,444
281,450
282,460
283,461
284,464
285,469
286,488
287,501
288,493
289,502
290,508
291,515
292,523
293,523
294,519
295,519
296,533
297,550
298,573
299,583
300,579
301,564
302,544
303,527
304,518
305,482
306,464
307,443
308,426
309,421
310,407
311,421
312,452
313,484
314,519
315,537
316,557
317,562
318,568
319,576
320,555
321,537
322,525
323,503
324,494
325,482
326,473
327,464
328,442
329,441
330,449
331,459
332,462
333,480
334,494
335,504
336,517
337,509
338,514
339,514
340,511
341,505
342,491
343,502
344,497
345,480
346,481
347,492
348,501
349,500
350,490
351,492
352,498
353,493
354,487
355,468
356,455
357,458
358,464
359,478
360,492
361,509
362,526
363,543
364,539
365,523
366,519
367,510
368,486
369,472
370,456
371,459
372,462
373,445
374,428
375,421
376,427
377,432
378,440
379,460
380,481
381,500
382,516
383,512
384,523
385,509
386,503
387,505
388,498
389,484
390,445
391,429
392,441
393,464
394,493
395,493
396,493
397,505
398,515
399,531
400,546
401,564
402,571
403,569
404,569
405,566
406,567
407,563
408,567
409,574
410,564
411,562
412,564
413,572
414,590
415,567
416,542
417,525
418,518
419,515
420,508
421,513
422,524
423,535
424,527
425,504
426,515
427,518
428,508
429,487
430,460
431,462
432,475
433,492
434,515
435,517
436,516
437,520
438,513
439,514
440,516
441,532
442,541
443,539
444,534
445,511
446,513
447,518
448,523
449,526
450,520
451,521
452,518
453,519
454,542
455,561
456,560
457,547
458,513
459,491
460,492
461,505
462,528
463,536
464,532
465,527
466,540
467,547
468,546
469,531
470,518
471,515
472,524
473,526
474,517
475,500
476,501
477,511
478,502
479,486
480,463
481,452
482,451
483,456
484,463
485,472
486,499
487,517
488,525
489,541
490,544
491,555
492,562
493,563
494,557
495,534
496,520
497,509
498,503
499,499
500,495
501,528
502,523
503,502
504,499
505,499
506,507
507,492
508,472
509,469
510,464
511,478
512,497
513,504
514,517
515,533
516,555
517,568
518,569
519,566
520,556
521,541
522,522
523,505
524,500
525,484
526,486
527,485
528,476
529,465
530,446
531,458
532,463
533,469
534,480
535,475
536,476
537,479
538,487
539,498
540,502
541,520
542,518
543,504
544,493
545,480
546,494
547,504
548,500
549,498
550,491
551,492
552,490
553,484
554,491
555,498
556,510
557,512
558,512
559,515
560,510
561,512
562,514
563,512
564,517
565,504
566,486
567,466
568,445
569,455
570,475
571,486
572,481
573,480
574,468
575,457
576,454
577,457
578,460
579,467
580,483
581,501
582,502
583,478
584,464
585,453
586,463
587,490
588,518
589,537
590,524
591,517
592,518
593,527
594,508
595,487
596,489
597,493
598,488
599,476
600,454
601,446
602,452
603,453
604,476
605,480
606,501
607,511
608,506
609,521
610,523
611,533
612,541
613,540
614,552
615,552
616,545
617,548
618,546
619,551
620,527
621,517
622,505
623,499
624,505
625,501
626,498
627,504
628,495
629,484
630,483
631,481
632,480
633,471
634,472
635,471
636,470
637,469
638,466
639,466
640,462
641,473
642,492
643,505
644,527
645,543
646,566
647,564
648,560
649,564
650,568
651,549
652,559
653,566
654,572
655,572
656,580
657,585
658,583
659,582
660,577
661,580
662,563
663,534
664,523
665,507
666,504
667,507
668,518
669,523
670,527
671,512
672,489
673,489
674,497
675,505
676,509
677,500
678,510
679,508
680,487
681,480
682,492
683,490
684,491
685,476
686,470
687,455
688,435
689,448
690,435
691,437
692,443
693,440
694,457
695,462
696,473
697,492
698,489
699,492
700,487
701,496
702,504
703,504
704,511
705,520
706,525
707,538
708,547
709,549
710,543
711,560
712,545
713,528
714,521
715,519
716,534
717,552
718,552
719,556
720,547
721,551
722,550
723,547
724,536
725,516
726,510
727,508
728,511
729,522
730,517
731,522
732,530
733,543
734,563
735,566
736,566
737,556
738,543
739,525
740,498
741,496
742,506
743,524
744,523
745,509
746,503
747,498
748,500
749,504
750,503
751,492
752,484
753,497
754,495
755,481
756,473
757,472
758,478
759,489
760,482
761,480
762,489
763,496
764,500
765,500
766,501
767,492
768,497
769,511
770,510
771,519
772,515
773,494
774,494
775,496
776,491
777,481
778,479
779,484
780,485
781,473
782,463
783,449
784,448
785,465
786,492
787,524
788,533
789,540
790,536
791,530
792,535
793,545
794,560
795,560
796,561
797,559
798,546
799,540
800,536
801,545
802,552
803,547
804,550
805,553
806,569
807,571
808,563
809,556
810,557
811,568
812,574
813,575
814,573
815,555
816,542
817,538
818,531
819,532
820,531
821,544
822,552
823,548
824,561
825,559
826,559
827,572
828,581
829,582
830,571
831,575
832,574
833,566
834,559
835,532
836,518
837,502
838,487
839,483
840,479
841,486
842,487
843,507
844,518
845,526
846,537
847,530
848,518
849,523
850,512
851,504
852,500
853,493
854,503
855,507
856,511
857,516
858,511
859,522
860,528
861,541
862,542
863,538
864,535
865,525
866,523
867,514
868,511
869,512
870,508
871,515
872,527
873,518
874,511
875,510
876,522
877,527
878,523
879,518
880,513
881,513
882,518
883,510
884,486
885,465
886,473
887,495
888,504
889,496
890,481
891,478
892,488
893,489
894,485
895,483
896,487
897,483
898,467
899,462
900,454
901,453
902,454
903,461
904,450
905,428
906,434
907,454
908,478
909,474
910,454
911,462
912,480
913,490
914,505
915,502
916,492
917,490
918,497
919,512
920,515
921,524
922,530
923,528
924,532
925,520
926,521
927,527
928,537
929,557
930,564
931,576
932,585
933,575
934,554
935,519
936,496
937,479
938,455
939,449
940,437
941,449
942,463
943,477
944,494
945,490
946,491
947,493
948,492
949,507
950,511
951,530
952,550
953,554
954,548
955,533
956,526
957,517
958,510
959,518
960,519
961,534
962,558
963,568
964,579
965,564
966,534
967,523
968,501
969,484
970,476
971,484
972,492
973,499
974,511
975,506
976,506
977,496
978,473
979,475
980,482
981,499
982,516
983,517
984,514
985,526
986,532
987,537
988,530
989,532
990,529
991,542
992,547
993,531
994,526
995,524
996,539
997,553
998,517
999,497
1000,481
1001,480
1002,492
1003,496
1004,502
1005,488
1006,483
1007,498
1008,498
1009,501
1010,506
1011,494
1012,493
1013,497
1014,519
1015,522
1016,519
1017,523
1018,520
1019,514
1020,498
1021,513
1022,529
1023,528
1024,535
1025,529
1026,513
1027,507
1028,485
1029,472
1030,460
1031,460
1032,468
1033,481
1034,498
1035,485
1036,486
1037,493
1038,497
1039,503
1040,497
1041,494
1042,507
1043,521
1044,540
1045,543
1046,543
1047,543
1048,543
1049,536
1050,513
1051,512
1052,529
1053,533
1054,537
1055,531
1056,534
1057,536
1058,530
1059,536
1060,523
1061,521
1062,526
1063,543
1064,554
1065,562
1066,568
1067,569
1068,574
1069,582
1070,587
1071,574
1072,561
1073,568
1074,565
1075,544
1076,515
1077,486
1078,457
1079,435
1080,405
1081,397
1082,405
1083,425
1084,449
1085,455
1086,455
1087,454
1088,451
1089,457
1090,466
1091,478
1092,496
1093,513
1094,527
1095,515
1096,515
1097,520
1098,535
1099,542
1100,530
1101,525
1102,521
1103,519
1104,525
1105,525
1106,519
1107,514
1108,515
1109,515
1110,478
1111,476
1112,489
1113,509
1114,507
1115,490
1116,472
1117,458
1118,465
1119,474
1120,494
1121,527
1122,568
1123,583
1124,568
1125,535
1126,523
1127,518
1128,516
1129,528
1130,531
1131,545
1132,546
1133,542
1134,540
1135,530
1136,533
1137,548
1138,553
1139,556
1140,546
1141,550
1142,546
1143,545
1144,558
1145,547
1146,549
1147,549
1148,544
1149,542
1150,542
1151,551
1152,549
1153,526
1154,506
1155,492
1156,508
1157,517
1158,498
1159,471
1160,443
1161,428
1162,412
1163,391
1164,364
1165,352
1166,365
1167,370
1168,387
1169,414
1170,416
1171,424
1172,425
1173,425
1174,437
1175,442
1176,449
1177,463
1178,475
1179,480
1180,455
1181,428
1182,417
1183,419
1184,435
1185,440
1186,450
1187,464
1188,472
1189,490
1190,497
1191,494
1192,496
1193,497
1194,505
1195,518
1196,516
1197,506
1198,508
1199,515
1200,522
1201,527
1202,519
1203,537
1204,563
1205,575
1206,592
1207,577
1208,545
1209,519
1210,494
1211,484
1212,481
1213,473
1214,485
1215,494
1216,518
1217,535
1218,525
1219,514
1220,511
1221,528
1222,542
1223,532
1224,519
1225,502
1226,505
1227,522
1228,544
1229,572
1230,568
1231,563
1232,561
1233,552
1234,537
1235,515
1236,519
1237,529
1238,517
1239,505
1240,487
1241,486
1242,495
1243,492
1244,491
1245,488
1246,496
1247,503
1248,505
1249,504
1250,486
1251,468
1252,457
1253,455
1254,482
1255,509
1256,535
1257,550
1258,551
1259,558
1260,544
1261,542
1262,536
1263,537
1264,535
1265,534
1266,534
1267,536
1268,519
1269,512
1270,522
1271,548
1272,557
1273,544
1274,540
1275,536
1276,536
1277,537
1278,534
1279,540
1280,543
1281,548
1282,540
1283,518
1284,490
1285,470
1286,466
1287,461
1288,458
1289,459
1290,455
1291,456
1292,468
1293,463
1294,474
1295,479
1296,494
1297,524
1298,514
1299,511
1300,503
1301,510
1302,522
1303,532
1304,538
1305,531
1306,526
1307,530
1308,538
1309,550
1310,564
1311,585
1312,602
1313,603
1314,599
1315,589
1316,587
1317,585
1318,580
1319,574
1320,552
1321,536
1322,524
1323,534
1324,538
1325,525
1326,520
1327,520
1328,529
1329,539
1330,553
1331,562
1332,565
1333,548
1334,529
1335,509
1336,508
1337,515
1338,521
1339,522
1340,519
1341,533
1342,537
1343,517
1344,492
1345,459
1346,444
1347,438
1348,454
1349,479
1350,491
1351,507
1352,523
1353,535
1354,548
1355,536
1356,517
1357,496
1358,471
1359,463
1360,460
1361,473
1362,494
1363,497
1364,506
1365,509
1366,504
1367,492
1368,456
1369,431
1370,425
1371,435
1372,443
1373,434
1374,422
1375,412
1376,432
1377,433
1378,425
1379,408
1380,396
1381,396
1382,410
1383,410
1384,434
1385,456
1386,472
1387,481
1388,491
1389,507
1390,511
1391,519
1392,528
1393,530
1394,540
1395,530
1396,524
1397,525
1398,520
1399,523
1400,518
1401,512
1402,527
1403,536
1404,545
1405,541
1406,528
1407,529
1408,549
1409,558
1410,566
1411,575
1412,585
1413,593
1414,600
1415,591
1416,579
1417,564
1418,571
1419,568
1420,553
1421,552
1422,552
1423,546
1424,538
1425,495
1426,460
1427,443
1428,449
1429,476
1430,497
1431,518
1432,532
1433,543
1434,543
1435,528
1436,521
1437,514
1438,491
1439,475
1440,463
1441,463
1442,469
1443,460
1444,472
1445,472
1446,477
1447,507
1448,506
1449,503
1450,505
1451,520
1452,528
1453,525
1454,524
1455,518
1456,512
1457,505
1458,494
1459,490
1460,476
1461,481
1462,487
1463,496
1464,503
1465,500
1466,493
1467,491
1468,497
1469,510
1470,514
1471,525
1472,528
1473,514
1474,514
1475,510
1476,512
1477,510
1478,508
1479,519
1480,511
1481,495
1482,496
1483,508
1484,521
1485,516
1486,519
1487,536
1488,561
1489,577
1490,571
1491,564
1492,561
1493,547
1494,536
1495,532
1496,530
1497,531
1498,507
1499,488
1500,471
1501,463
1502,468
1503,455
1504,436
1505,413
1506,407
1507,415
1508,422
1509,437
1510,449
1511,472
1512,497
1513,499
1514,513
1515,519
1516,518
1517,510
1518,492
1519,502
1520,508
1521,515
1522,524
1523,521
1524,510
1525,485
1526,479
1527,473
1528,463
1529,458
1530,448
1531,450
1532,460
1533,469
1534,486
1535,503
1536,519
1537,521
1538,523
1539,515
1540,500
1541,502
1542,515
1543,529
1544,547
1545,543
1546,528
1547,525
1548,536
1549,542
1550,531
1551,519
1552,517
1553,513
1554,501
1555,486
1556,484
1557,498
1558,513
1559,536
1560,534
1561,531
1562,549
1563,546
1564,553
1565,548
1566,541
1567,511
1568,480
1569,467
1570,459
1571,467
1572,487
1573,506
1574,531
1575,538
1576,547
1577,553
1578,531
1579,512
1580,499
1581,489
1582,492
1583,496
1584,504
1585,512
1586,542
1587,558
1588,563
1589,548
1590,529
1591,523
1592,524
1593,519
1594,523
1595,506
1596,495
1597,500
1598,501
1599,508
1600,505
1601,514
1602,535
1603,542
1604,523
1605,502
1606,506
1607,512
1608,512
1609,530
1610,534
1611,533
1612,532
1613,516
1614,500
1615,486
1616,480
1617,483
1618,492
1619,511
1620,520
1621,531
1622,531
1623,524
1624,519
1625,513
1626,524
1627,540
1628,552
1629,553
1630,545
1631,547
1632,551
1633,541
1634,541
1635,534
1636,543
1637,537
1638,521
1639,511
1640,496
1641,500
1642,495
1643,487
1644,492
1645,497
1646,513
1647,516
1648,504
1649,494
1650,494
1651,510
1652,525
1653,529
1654,529
1655,524
1656,518
1657,509
1658,481
1659,480
1660,484
1661,508
1662,536
1663,550
1664,543
1665,522
1666,507
1667,491
1668,485
1669,497
1670,501
1671,502
1672,496
1673,479
1674,487
1675,463
1676,460
1677,454
1678,442
1679,448
1680,455
1681,465
1682,486
1683,504
1684,524
1685,529
1686,540
1687,537
1688,528
1689,508
1690,475
1691,464
1692,469
1693,476
1694,488
1695,495
1696,505
1697,515
1698,508
1699,514
1700,512
1701,526
1702,521
1703,506
1704,499
1705,502
1706,518
1707,529
1708,525
1709,525
1710,516
1711,518
1712,513
1713,487
1714,461
1715,428
1716,419
1717,406
1718,420
1719,431
1720,438
1721,452
1722,472
1723,495
1724,515
1725,519
1726,523
1727,528
1728,538
1729,549
1730,530
1731,519
1732,519
1733,519
1734,527
1735,531
1736,539
1737,533
1738,516
1739,504
1740,490
1741,504
1742,513
1743,526
1744,541
1745,541
1746,541
1747,532
1748,521
1749,508
1750,506
1751,521
1752,526
1753,526
1754,531
1755,527
1756,531
1757,529
1758,516
1759,524
1760,526
1761,537
1762,549
1763,556
1764,567
1765,576
1766,586
1767,589
1768,569
1769,549
1770,530
1771,533
1772,541
1773,548
1774,560
1775,571
1776,585
1777,588
1778,575
1779,571
1780,568
1781,576
1782,579
1783,572
1784,550
1785,527
1786,517
1787,522
1788,529
1789,535
1790,532
1791,538
1792,550
1793,547
1794,531
1795,527
1796,529
1797,525
1798,497
1799,480
1800,486
1801,504
1802,524
1803,525
1804,521
1805,523
1806,537
1807,543
1808,541
1809,543
1810,532
1811,525
1812,535
1813,531
1814,531
1815,518
1816,516
1817,527
1818,517
1819,499
1820,478
1821,490
1822,492
1823,478
1824,474
1825,468
1826,473
1827,480
1828,497
1829,510
1830,508
1831,503
1832,483
1833,475
1834,472
1835,475
1836,489
1837,500
1838,522
1839,517
1840,491
1841,479
1842,479
1843,481
1844,479
1845,456
1846,433
1847,427
1848,428
1849,439
1850,442
1851,438
1852,440
1853,440
1854,435
1855,437
1856,452
1857,457
1858,458
1859,460
1860,445
1861,440
1862,458
1863,479
1864,481
1865,461
1866,442
1867,423
1868,414
1869,424
1870,443
1871,475
1872,515
1873,518
1874,525
1875,518
1876,527
1877,530
1878,521
1879,519
1880,508
1881,515
1882,508
1883,486
1884,502
1885,486
1886,484
1887,482
1888,483
1889,491
1890,496
1891,497
1892,505
1893,503
1894,507
1895,505
1896,501
1897,484
1898,481
1899,486
1900,480
1901,484
1902,479
1903,484
1904,483
1905,476
1906,478
1907,488
1908,511
1909,531
1910,541
1911,533
1912,509
1913,506
1914,502
1915,486
1916,473
1917,473
1918,497
1919,518
1920,510
1921,499
1922,499
1923,505
1924,527
1925,539
1926,541
1927,538
1928,532
1929,526
1930,530
1931,538
1932,534
1933,518
1934,498
1935,485
1936,486
1937,487
1938,495
1939,510
1940,514
1941,512
1942,507
1943,493
1944,498
1945,498
1946,496
1947,508
1948,512
1949,516
1950,512
1951,523
1952,536
1953,527
1954,529
1955,520
1956,514
1957,514
1958,517
1959,527
1960,536
1961,537
1962,537
1963,560
1964,566
1965,544
1966,521
1967,500
1968,494
1969,496
1970,490
1971,480
1972,470
1973,476
1974,492
1975,502
1976,509
1977,520
1978,530
1979,548
1980,558
1981,557
1982,550
1983,542
1984,540
1985,548
1986,547
1987,543
1988,547
1989,556
1990,564
1991,576
1992,587
1993,579
1994,566
1995,556
1996,535
1997,531
1998,525
1999,520
