timestamp,signal
0,472
1,476
2,494
3,512
4,526
5,542
6,557
7,555
8,542
9,526
10,506
11,486
12,467
13,464
14,468
15,441
16,435
17,440
18,432
19,425
20,423
21,448
22,450
23,448
24,453
25,455
26,455
27,467
28,500
29,519
30,540
31,558
32,569
33,578
34,578
35,572
36,556
37,550
38,552
39,546
40,546
41,548
42,547
43,543
44,538
45,532
46,520
47,505
48,487
49,473
50,476
51,491
52,496
53,493
54,487
55,495
56,509
57,525
58,540
59,547
60,553
61,548
62,529
63,511
64,503
65,500
66,497
67,504
68,504
69,495
70,500
71,509
72,519
73,521
74,523
75,526
76,524
77,519
78,530
79,541
80,557
81,575
82,582
83,591
84,590
85,581
86,573
87,566
88,580
89,580
90,568
91,556
92,551
93,547
94,538
95,534
96,538
97,544
98,543
99,528
100,508
101,492
102,466
103,442
104,421
105,415
106,425
107,444
108,460
109,477
110,493
111,498
112,494
113,485
114,482
115,472
116,472
117,483
118,485
119,498
120,511
121,517
122,524
123,515
124,512
125,513
126,501
127,504
128,501
129,502
130,509
131,515
132,501
133,502
134,513
135,516
136,526
137,541
138,568
139,577
140,575
141,570
142,560
143,547
144,536
145,523
146,519
147,520
148,525
149,525
150,520
151,529
152,536
153,528
154,521
155,529
156,510
157,503
158,495
159,479
160,459
161,454
162,460
163,455
164,460
165,469
166,463
167,454
168,439
169,443
170,454
171,465
172,475
173,481
174,499
175,514
176,536
177,524
178,507
179,499
180,496
181,508
182,525
183,520
184,521
185,537
186,553
187,561
188,572
189,549
190,534
191,533
192,538
193,545
194,552
195,551
196,550
197,546
198,528
199,519
200,499
201,474
202,465
203,455
204,456
205,467
206,484
207,507
208,528
209,536
210,531
211,538
212,542
213,547
214,550
215,545
216,525
217,504
218,503
219,502
220,516
221,509
222,520
223,526
224,532
225,549
226,572
227,596
228,606
229,600
230,597
231,584
232,546
233,530
234,519
235,511
236,499
237,507
238,512
239,515
240,519
241,524
242,530
243,523
244,516
245,510
246,511
247,503
248,475
249,460
250,451
251,451
252,469
253,478
254,476
255,470
256,471
257,475
258,472
259,471
260,465
261,452
262,445
263,436
264,431
265,440
266,455
267,472
268,474
269,483
270,484
271,472
272,470
273,460
274,458
275,465
276,474
277,495
278,502
279,521
280,539
281,542
282,547
283,544
284,540
285,524
286,505
287,503
288,505
289,505
290,506
291,508
292,521
293,509
294,487
295,483
296,489
297,492
298,491
299,500
300,512
301,520
302,525
303,518
304,514
305,513
306,519
307,528
308,544
309,550
310,556
311,558
312,555
313,564
314,577
315,576
316,561
317,547
318,544
319,542
320,535
321,524
322,512
323,499
324,494
325,488
326,488
327,488
328,483
329,486
330,472
331,458
332,465
333,475
334,475
335,473
336,480
337,491
338,487
339,481
340,475
341,473
342,473
343,484
344,495
345,506
346,513
347,517
348,513
349,507
350,495
351,493
352,502
353,516
354,519
355,519
356,515
357,516
358,518
359,519
360,526
361,534
362,541
363,543
364,535
365,521
366,523
367,522
368,511
369,513
370,500
371,492
372,493
373,498
374,506
375,515
376,516
377,516
378,526
379,507
380,512
381,523
382,532
383,535
384,527
385,517
386,520
387,527
388,507
389,488
390,479
391,475
392,476
393,473
394,478
395,499
396,522
397,536
398,528
399,524
400,526
401,534
402,542
403,543
404,543
405,533
406,521
407,515
408,489
409,473
410,464
411,459
412,477
413,478
414,483
415,489
416,505
417,521
418,542
419,552
420,540
421,533
422,516
423,494
424,486
425,492
426,515
427,525
428,518
429,510
430,504
431,515
432,515
433,501
434,491
435,481
436,481
437,481
438,483
439,493
440,501
441,516
442,525
443,537
444,526
445,508
446,501
447,501
448,516
449,524
450,519
451,513
452,513
453,534
454,548
455,543
456,526
457,508
458,499
459,505
460,522
461,531
462,536
463,534
464,518
465,499
466,495
467,502
468,505
469,492
470,481
471,479
472,500
473,516
474,502
475,482
476,479
477,504
478,499
479,493
480,478
481,468
482,480
483,491
484,498
485,505
486,513
487,509
488,497
489,499
490,504
491,508
492,509
493,491
494,478
495,479
496,488
497,483
498,462
499,458
500,465
501,473
502,476
503,493
504,510
505,512
506,521
507,531
508,555
509,573
510,564
511,545
512,550
513,569
514,590
515,579
516,571
517,543
518,513
519,490
520,468
521,450
522,441
523,416
524,413
525,428
526,457
527,476
528,488
529,499
530,508
531,519
532,501
533,504
534,519
535,521
536,516
537,508
538,493
539,498
540,506
541,515
542,531
543,528
544,533
545,538
546,532
547,507
548,493
549,480
550,466
551,470
552,489
553,523
554,545
555,552
556,543
557,541
558,543
559,545
560,539
561,541
562,545
563,531
564,508
565,495
566,496
567,496
568,482
569,466
570,446
571,442
572,438
573,436
574,433
575,441
576,458
577,470
578,477
579,479
580,484
581,493
582,504
583,483
584,476
585,482
586,493
587,509
588,482
589,471
590,479
591,495
592,513
593,520
594,522
595,527
596,540
597,547
598,549
599,548
600,541
601,542
602,531
603,532
604,551
605,550
606,563
607,564
608,558
609,554
610,571
611,589
612,608
613,601
614,577
615,555
616,558
617,560
618,540
619,518
620,508
621,514
622,531
623,544
624,554
625,567
626,572
627,576
628,585
629,585
630,576
631,546
632,502
633,481
634,481
635,496
636,520
637,536
638,519
639,512
640,524
641,524
642,529
643,531
644,534
645,521
646,505
647,494
648,483
649,479
650,491
651,507
652,506
653,505
654,502
655,488
656,477
657,479
658,478
659,484
660,500
661,504
662,495
663,465
664,470
665,482
666,508
667,525
668,519
669,510
670,513
671,520
672,524
673,527
674,528
675,524
676,525
677,515
678,507
679,486
680,479
681,485
682,497
683,518
684,536
685,532
686,521
687,521
688,529
689,525
690,513
691,495
692,491
693,501
694,508
695,513
696,526
697,515
698,501
699,489
700,480
701,486
702,488
703,481
704,478
705,485
706,480
707,468
708,463
709,441
710,438
711,455
712,477
713,495
714,512
715,514
716,508
717,506
718,500
719,487
720,483
721,490
722,498
723,507
724,509
725,509
726,501
727,491
728,487
729,490
730,492
731,489
732,476
733,479
734,470
735,472
736,490
737,505
738,527
739,545
740,545
741,541
742,539
743,531
744,522
745,505
746,502
747,500
748,483
749,474
750,466
751,466
752,480
753,484
754,480
755,472
756,472
757,488
758,496
759,497
760,490
761,487
762,482
763,480
764,485
765,487
766,489
767,488
768,468
769,453
770,447
771,446
772,448
773,432
774,441
775,434
776,443
777,471
778,484
779,498
780,509
781,517
782,533
783,533
784,537
785,537
786,542
787,548
788,560
789,561
790,557
791,554
792,543
793,504
794,481
795,489
796,504
797,521
798,524
799,515
800,501
801,500
802,510
803,533
804,540
805,536
806,527
807,524
808,518
809,521
810,534
811,541
812,533
813,521
814,524
815,540
816,555
817,559
818,550
819,547
820,544
821,533
822,529
823,519
824,518
825,525
826,537
827,537
828,543
829,546
830,548
831,548
832,557
833,571
834,582
835,583
836,580
837,580
838,578
839,572
840,558
841,536
842,520
843,493
844,475
845,467
846,470
847,475
848,480
849,491
850,496
851,502
852,503
853,502
854,508
855,504
856,508
857,510
858,500
859,497
860,503
861,500
862,495
863,488
864,501
865,503
866,495
867,505
868,509
869,510
870,504
871,494
872,484
873,482
874,493
875,492
876,496
877,509
878,518
879,521
880,526
881,526
882,519
883,509
884,498
885,495
886,506
887,510
888,496
889,485
890,495
891,509
892,521
893,510
894,488
895,483
896,478
897,484
898,494
899,509
900,525
901,524
902,530
903,535
904,544
905,540
906,522
907,513
908,512
909,525
910,536
911,537
912,548
913,562
914,561
915,543
916,539
917,529
918,519
919,513
920,506
921,502
922,510
923,509
924,512
925,520
926,524
927,525
928,523
929,525
930,534
931,544
932,547
933,543
934,531
935,525
936,519
937,522
938,527
939,528
940,511
941,487
942,474
943,468
944,450
945,462
946,477
947,492
948,504
949,511
950,499
951,492
952,484
953,478
954,480
955,479
956,487
957,493
958,482
959,467
960,459
961,461
962,480
963,504
964,515
965,510
966,504
967,480
968,456
969,448
970,457
971,481
972,514
973,518
974,522
975,519
976,513
977,519
978,517
979,520
980,534
981,532
982,527
983,510
984,503
985,509
986,511
987,513
988,492
989,476
990,483
991,487
992,491
993,483
994,496
995,510
996,515
997,525
998,518
999,514
1000,500
1001,504
1002,515
1003,539
1004,551
1005,549
1006,547
1007,530
1008,510
1009,500
1010,507
1011,523
1012,529
1013,517
1014,498
1015,481
1016,473
1017,464
1018,454
1019,449
1020,445
1021,461
1022,485
1023,487
1024,487
1025,474
1026,467
1027,487
1028,504
1029,516
1030,526
1031,520
1032,504
1033,503
1034,517
1035,538
1036,554
1037,561
1038,572
1039,587
1040,591
1041,585
1042,582
1043,585
1044,582
1045,577
1046,566
1047,543
1048,524
1049,518
1050,520
1051,526
1052,522
1053,506
1054,494
1055,497
1056,511
1057,528
1058,520
1059,513
1060,510
1061,513
1062,510
1063,510
1064,516
1065,525
1066,517
1067,514
1068,515
1069,522
1070,532
1071,543
1072,550
1073,524
1074,518
1075,531
1076,532
1077,527
1078,510
1079,500
1080,490
1081,488
1082,481
1083,457
1084,430
1085,426
1086,440
1087,443
1088,439
1089,445
1090,463
1091,488
1092,510
1093,524
1094,537
1095,550
1096,550
1097,559
1098,554
1099,542
1100,531
1101,530
1102,520
1103,506
1104,507
1105,511
1106,519
1107,526
1108,513
1109,481
1110,452
1111,445
1112,460
1113,469
1114,473
1115,483
1116,499
1117,519
1118,546
1119,561
1120,572
1121,560
1122,537
1123,523
1124,518
1125,525
1126,519
1127,515
1128,529
1129,562
1130,569
1131,568
1132,551
1133,535
1134,511
1135,490
1136,493
1137,521
1138,507
1139,495
1140,488
1141,479
1142,469
1143,467
1144,473
1145,484
1146,495
1147,501
1148,489
1149,476
1150,473
1151,488
1152,505
1153,503
1154,487
1155,464
1156,462
1157,476
1158,489
1159,502
1160,515
1161,526
1162,548
1163,556
1164,555
1165,546
1166,538
1167,532
1168,521
1169,517
1170,510
1171,502
1172,504
1173,515
1174,525
1175,527
1176,535
1177,534
1178,537
1179,534
1180,528
1181,529
1182,527
1183,512
1184,496
1185,477
1186,468
1187,471
1188,478
1189,491
1190,499
1191,501
1192,505
1193,521
1194,530
1195,512
1196,502
1197,488
1198,472
1199,465
1200,468
1201,475
1202,477
1203,472
1204,458
1205,448
1206,452
1207,458
1208,460
1209,478
1210,489
1211,500
1212,507
1213,498
1214,495
1215,492
1216,498
1217,505
1218,501
1219,507
1220,505
1221,499
1222,495
1223,508
1224,527
1225,539
1226,534
1227,526
1228,518
1229,513
1230,496
1231,495
1232,505
1233,511
1234,507
1235,500
1236,501
1237,504
1238,512
1239,500
1240,500
1241,489
1242,489
1243,486
1244,477
1245,481
1246,475
1247,463
1248,457
1249,453
1250,463
1251,480
1252,494
1253,505
1254,510
1255,503
1256,503
1257,492
1258,475
1259,474
1260,481
1261,487
1262,484
1263,487
1264,489
1265,491
1266,502
1267,523
1268,523
1269,516
1270,515
1271,521
1272,524
1273,521
1274,521
1275,521
1276,529
1277,540
1278,536
1279,533
1280,535
1281,536
1282,550
1283,533
1284,537
1285,547
1286,556
1287,562
1288,559
1289,560
1290,554
1291,544
1292,547
1293,548
1294,557
1295,569
1296,569
1297,549
1298,542
1299,536
1300,530
1301,520
1302,520
1303,522
1304,515
1305,509
1306,507
1307,509
1308,514
1309,528
1310,542
1311,552
1312,546
1313,526
1314,527
1315,500
1316,492
1317,483
1318,475
1319,469
1320,466
1321,472
1322,483
1323,497
1324,501
1325,505
1326,513
1327,531
1328,556
1329,572
1330,576
1331,571
1332,567
1333,569
1334,579
1335,582
1336,585
1337,583
1338,592
1339,581
1340,561
1341,550
1342,543
1343,531
1344,527
1345,518
1346,511
1347,494
1348,488
1349,481
1350,474
1351,472
1352,475
1353,488
1354,492
1355,483
1356,487
1357,496
1358,498
1359,513
1360,518
1361,516
1362,519
1363,515
1364,513
1365,514
1366,509
1367,505
1368,498
1369,495
1370,497
1371,496
1372,498
1373,492
1374,478
1375,472
1376,483
1377,507
1378,518
1379,519
1380,518
1381,527
1382,542
1383,553
1384,572
1385,583
1386,581
1387,561
1388,542
1389,524
1390,501
1391,489
1392,483
1393,500
1394,512
1395,518
1396,537
1397,548
1398,534
1399,511
1400,495
1401,492
1402,504
1403,509
1404,505
1405,511
1406,525
1407,522
1408,506
1409,491
1410,479
1411,483
1412,501
1413,504
1414,501
1415,495
1416,502
1417,502
1418,500
1419,493
1420,494
1421,477
1422,460
1423,468
1424,484
1425,508
1426,532
1427,544
1428,563
1429,584
1430,570
1431,564
1432,557
1433,559
1434,553
1435,543
1436,541
1437,547
1438,531
1439,502
1440,476
1441,459
1442,458
1443,451
1444,437
1445,439
1446,440
1447,455
1448,474
1449,485
1450,487
1451,480
1452,466
1453,454
1454,453
1455,453
1456,455
1457,462
1458,466
1459,473
1460,485
1461,492
1462,502
1463,507
1464,524
1465,536
1466,544
1467,554
1468,535
1469,512
1470,501
1471,496
1472,499
1473,499
1474,499
1475,507
1476,527
1477,540
1478,530
1479,518
1480,508
1481,507
1482,519
1483,534
1484,547
1485,558
1486,558
1487,551
1488,556
1489,558
1490,561
1491,556
1492,517
1493,496
1494,488
1495,490
1496,497
1497,506
1498,508
1499,517
1500,497
1501,496
1502,501
1503,499
1504,489
1505,478
1506,484
1507,494
1508,494
1509,495
1510,494
1511,490
1512,483
1513,459
1514,441
1515,429
1516,432
1517,446
1518,456
1519,450
1520,459
1521,458
1522,473
1523,465
1524,465
1525,480
1526,494
1527,515
1528,512
1529,512
1530,516
1531,526
1532,538
1533,562
1534,571
1535,565
1536,564
1537,563
1538,549
1539,532
1540,519
1541,498
1542,482
1543,479
1544,481
1545,488
1546,497
1547,499
1548,495
1549,488
1550,497
1551,515
1552,518
1553,529
1554,540
1555,541
1556,543
1557,548
1558,529
1559,512
1560,496
1561,487
1562,481
1563,484
1564,485
1565,480
1566,473
1567,472
1568,472
1569,470
1570,472
1571,470
1572,469
1573,475
1574,491
1575,504
1576,522
1577,528
1578,511
1579,498
1580,486
1581,488
1582,499
1583,482
1584,468
1585,466
1586,473
1587,481
1588,464
1589,463
1590,476
1591,483
1592,492
1593,488
1594,491
1595,499
1596,510
1597,519
1598,531
1599,540
1600,549
1601,565
1602,582
1603,588
1604,582
1605,569
1606,557
1607,537
1608,510
1609,497
1610,496
1611,497
1612,494
1613,504
1614,496
1615,492
1616,486
1617,472
1618,468
1619,468
1620,470
1621,481
1622,490
1623,480
1624,478
1625,487
1626,491
1627,503
1628,499
1629,502
1630,510
1631,508
1632,513
1633,482
1634,450
1635,428
1636,407
1637,409
1638,427
1639,450
1640,468
1641,492
1642,500
1643,519
1644,537
1645,547
1646,550
1647,527
1648,514
1649,518
1650,521
1651,531
1652,547
1653,567
1654,568
1655,554
1656,544
1657,543
1658,540
1659,536
1660,535
1661,533
1662,527
1663,511
1664,500
1665,505
1666,504
1667,509
1668,505
1669,512
1670,521
1671,525
1672,523
1673,512
1674,495
1675,482
1676,471
1677,472
1678,486
1679,500
1680,511
1681,525
1682,519
1683,523
1684,515
1685,514
1686,519
1687,517
1688,538
1689,567
1690,592
1691,591
1692,577
1693,572
1694,574
1695,570
1696,569
1697,558
1698,554
1699,544
1700,529
1701,533
1702,542
1703,536
1704,530
1705,517
1706,519
1707,534
1708,551
1709,552
1710,555
1711,567
1712,574
1713,574
1714,564
1715,551
1716,550
1717,553
1718,543
1719,534
1720,497
1721,482
1722,469
1723,455
1724,445
1725,440
1726,453
1727,457
1728,468
1729,481
1730,499
1731,517
1732,531
1733,540
1734,543
1735,537
1736,531
1737,539
1738,556
1739,578
1740,600
1741,613
1742,613
1743,598
1744,577
1745,553
1746,541
1747,539
1748,535
1749,522
1750,520
1751,526
1752,525
1753,516
1754,502
1755,483
1756,475
1757,476
1758,483
1759,496
1760,516
1761,538
1762,544
1763,532
1764,531
1765,522
1766,513
1767,509
1768,484
1769,474
1770,477
1771,481
1772,480
1773,469
1774,465
1775,462
1776,458
1777,464
1778,475
1779,498
1780,512
1781,514
1782,504
1783,509
1784,516
1785,511
1786,499
1787,480
1788,464
1789,462
1790,453
1791,440
1792,434
1793,443
1794,447
1795,455
1796,473
1797,467
1798,474
1799,482
1800,484
1801,487
1802,490
1803,491
1804,482
1805,483
1806,493
1807,499
1808,487
1809,461
1810,440
1811,433
1812,440
1813,445
1814,473
1815,510
1816,512
1817,514
1818,501
1819,482
1820,467
1821,448
1822,438
1823,432
1824,433
1825,445
1826,462
1827,484
1828,496
1829,508
1830,508
1831,502
1832,502
1833,505
1834,504
1835,503
1836,514
1837,532
1838,549
1839,531
1840,526
1841,523
1842,527
1843,530
1844,524
1845,523
1846,529
1847,527
1848,515
1849,522
1850,539
1851,559
1852,570
1853,559
1854,539
1855,524
1856,520
1857,517
1858,515
1859,518
1860,516
1861,504
1862,493
1863,476
1864,461
1865,460
1866,477
1867,497
1868,496
1869,491
1870,488
1871,498
1872,514
1873,534
1874,535
1875,535
1876,536
1877,537
1878,540
1879,534
1880,530
1881,525
1882,509
1883,504
1884,514
1885,516
1886,519
1887,505
1888,516
1889,536
1890,540
1891,531
1892,514
1893,517
1894,530
1895,547
1896,559
1897,570
1898,566
1899,568
1900,571
1901,572
1902,563
1903,538
1904,524
1905,516
1906,518
1907,514
1908,504
1909,487
1910,489
1911,500
1912,513
1913,517
1914,519
1915,519
1916,515
1917,515
1918,504
1919,494
1920,491
1921,490
1922,483
1923,472
1924,465
1925,470
1926,473
1927,484
1928,493
1929,513
1930,524
1931,525
1932,532
1933,537
1934,551
1935,565
1936,579
1937,591
1938,581
1939,566
1940,560
1941,557
1942,524
1943,527
1944,528
1945,527
1946,527
1947,527
1948,520
1949,516
1950,529
1951,551
1952,571
1953,571
1954,563
1955,550
1956,540
1957,527
1958,509
1959,489
1960,475
1961,479
1962,497
1963,508
1964,508
1965,500
1966,487
1967,478
1968,476
1969,479
1970,483
1971,494
1972,498
1973,470
1974,457
1975,458
1976,456
1977,460
1978,452
1979,446
1980,439
1981,428
1982,428
1983,437
1984,454
1985,465
1986,485
1987,515
1988,542
1989,545
1990,535
1991,518
1992,511
1993,506
1994,509
1995,504
1996,500
1997,510
1998,515
1999,519
