timestamp,signal
0,495
1,495
2,500
3,504
4,517
5,515
6,520
7,515
8,498
9,491
10,487
11,492
12,492
13,478
14,462
15,459
16,481
17,497
18,496
19,490
20,487
21,508
22,531
23,543
24,545
25,515
26,497
27,466
28,440
29,428
30,411
31,404
32,413
33,420
34,427
35,419
36,433
37,444
38,445
39,449
40,443
41,448
42,455
43,458
44,467
45,458
46,464
47,468
48,473
49,478
50,473
51,482
52,492
53,503
54,520
55,534
56,556
57,576
58,561
59,550
60,531
61,526
62,523
63,512
64,509
65,504
66,503
67,493
68,497
69,490
70,475
71,472
72,483
73,499
74,529
75,534
76,522
77,519
78,514
79,515
80,492
81,464
82,453
83,436
84,437
85,444
86,472
87,495
88,516
89,525
90,518
91,508
92,519
93,532
94,538
95,533
96,555
97,569
98,568
99,574
100,566
101,563
102,556
103,550
104,556
105,551
106,531
107,516
108,519
109,517
110,495
111,476
112,469
113,485
114,502
115,505
116,499
117,496
118,510
119,512
120,497
121,500
122,514
123,518
124,505
125,473
126,464
127,445
128,430
129,444
130,460
131,480
132,501
133,499
134,501
135,497
136,493
137,490
138,495
139,499
140,480
141,483
142,488
143,488
144,511
145,521
146,530
147,531
148,524
149,531
150,534
151,538
152,539
153,528
154,524
155,524
156,531
157,544
158,555
159,558
160,543
161,522
162,496
163,487
164,462
165,460
166,474
167,489
168,499
169,511
170,512
171,517
172,519
173,515
174,521
175,512
176,508
177,513
178,516
179,514
180,496
181,490
182,492
183,492
184,490
185,481
186,484
187,491
188,486
189,492
190,511
191,512
192,531
193,551
194,574
195,588
196,581
197,543
198,526
199,505
200,476
201,468
202,472
203,497
204,504
205,499
206,503
207,501
208,517
209,512
210,487
211,485
212,486
213,482
214,487
215,498
216,502
217,518
218,504
219,486
220,483
221,507
222,524
223,520
224,519
225,503
226,504
227,527
228,546
229,568
230,568
231,571
232,573
233,573
234,575
235,566
236,568
237,565
238,553
239,537
240,511
241,498
242,495
243,505
244,519
245,513
246,525
247,526
248,528
249,548
250,539
251,543
252,550
253,552
254,551
255,530
256,526
257,529
258,520
259,524
260,512
261,519
262,530
263,527
264,532
265,531
266,549
267,548
268,558
269,560
270,554
271,563
272,575
273,564
274,551
275,533
276,531
277,525
278,504
279,501
280,498
281,512
282,501
283,483
284,469
285,456
286,468
287,484
288,496
289,511
290,509
291,515
292,517
293,510
294,498
295,482
296,471
297,465
298,454
299,460
300,468
301,494
302,507
303,519
304,539
305,533
306,524
307,508
308,484
309,477
310,475
311,478
312,482
313,492
314,492
315,477
316,478
317,489
318,512
319,527
320,504
321,476
322,460
323,472
324,485
325,492
326,514
327,516
328,510
329,502
330,492
331,502
332,513
333,496
334,499
335,496
336,492
337,492
338,496
339,495
340,488
341,502
342,523
343,536
344,545
345,524
346,508
347,499
348,496
349,507
350,510
351,521
352,546
353,566
354,578
355,573
356,557
357,544
358,550
359,540
360,519
361,505
362,501
363,511
364,512
365,510
366,508
367,512
368,528
369,527
370,508
371,495
372,508
373,531
374,541
375,507
376,486
377,481
378,482
379,496
380,501
381,517
382,526
383,526
384,541
385,537
386,527
387,522
388,511
389,516
390,526
391,551
392,567
393,578
394,587
395,577
396,586
397,596
398,591
399,580
400,545
401,522
402,508
403,500
404,497
405,497
406,513
407,524
408,522
409,505
410,483
411,492
412,494
413,506
414,507
415,498
416,501
417,506
418,494
419,481
420,466
421,479
422,482
423,480
424,486
425,475
426,477
427,486
428,493
429,519
430,545
431,575
432,600
433,606
434,609
435,588
436,569
437,560
438,556
439,548
440,523
441,497
442,487
443,494
444,496
445,497
446,503
447,503
448,500
449,497
450,500
451,505
452,512
453,505
454,489
455,466
456,467
457,463
458,448
459,438
460,435
461,448
462,472
463,496
464,518
465,520
466,529
467,542
468,542
469,529
470,514
471,528
472,550
473,562
474,577
475,571
476,553
477,547
478,543
479,545
480,522
481,506
482,507
483,509
484,509
485,501
486,501
487,491
488,483
489,490
490,489
491,488
492,482
493,483
494,487
495,486
496,491
497,492
498,489
499,491
500,502
501,529
502,555
503,550
504,543
505,532
506,530
507,518
508,528
509,544
510,532
511,551
512,567
513,565
514,544
515,510
516,499
517,496
518,501
519,511
520,504
521,511
522,522
523,525
524,515
525,500
526,511
527,514
528,513
529,508
530,492
531,491
532,493
533,496
534,499
535,488
536,486
537,494
538,503
539,516
540,501
541,498
542,491
543,488
544,505
545,508
546,527
547,540
548,537
549,547
550,545
551,561
552,586
553,600
554,591
555,569
556,567
557,561
558,535
559,521
560,488
561,466
562,463
563,449
564,444
565,431
566,436
567,459
568,463
569,460
570,463
571,486
572,505
573,510
574,503
575,498
576,495
577,480
578,462
579,449
580,441
581,465
582,491
583,522
584,540
585,524
586,519
587,522
588,513
589,503
590,491
591,506
592,516
593,507
594,490
595,465
596,463
597,464
598,462
599,474
600,475
601,472
602,486
603,487
604,496
605,489
606,501
607,517
608,512
609,510
610,507
611,519
612,514
613,489
614,478
615,462
616,475
617,489
618,483
619,492
620,503
621,513
622,526
623,541
624,536
625,526
626,537
627,557
628,557
629,556
630,522
631,513
632,522
633,536
634,535
635,524
636,516
637,504
638,501
639,519
640,499
641,491
642,490
643,498
644,507
645,503
646,511
647,509
648,493
649,482
650,473
651,482
652,504
653,535
654,531
655,515
656,520
657,533
658,522
659,512
660,477
661,470
662,481
663,469
664,467
665,458
666,466
667,495
668,491
669,499
670,496
671,514
672,541
673,573
674,598
675,610
676,617
677,608
678,588
679,560
680,535
681,521
682,509
683,504
684,507
685,488
686,488
687,493
688,494
689,505
690,513
691,527
692,541
693,562
694,568
695,548
696,526
697,509
698,504
699,505
700,501
701,504
702,492
703,488
704,479
705,469
706,474
707,491
708,493
709,491
710,459
711,459
712,455
713,459
714,475
715,478
716,487
717,494
718,486
719,492
720,486
721,494
722,502
723,508
724,511
725,498
726,509
727,517
728,518
729,499
730,474
731,481
732,498
733,516
734,519
735,513
736,523
737,535
738,540
739,552
740,564
741,582
742,593
743,572
744,536
745,509
746,510
747,505
748,498
749,494
750,475
751,481
752,491
753,494
754,491
755,470
756,470
757,483
758,502
759,525
760,528
761,536
762,546
763,556
764,545
765,538
766,546
767,551
768,555
769,560
770,543
771,538
772,533
773,521
774,518
775,509
776,515
777,516
778,516
779,537
780,537
781,523
782,503
783,485
784,478
785,473
786,480
787,490
788,489
789,488
790,475
791,476
792,467
793,443
794,434
795,436
796,456
797,473
798,489
799,503
800,492
801,496
802,506
803,522
804,544
805,541
806,548
807,551
808,542
809,526
810,504
811,511
812,521
813,539
814,555
815,556
816,561
817,569
818,571
819,558
820,537
821,545
822,553
823,533
824,504
825,483
826,483
827,500
828,504
829,508
830,508
831,518
832,521
833,502
834,494
835,494
836,511
837,530
838,542
839,546
840,531
841,521
842,501
843,498
844,510
845,515
846,542
847,556
848,551
849,542
850,523
851,520
852,537
853,542
854,543
855,537
856,544
857,543
858,524
859,507
860,476
861,461
862,463
863,465
864,487
865,499
866,514
867,514
868,523
869,553
870,569
871,595
872,601
873,595
874,583
875,555
876,533
877,515
878,476
879,460
880,454
881,457
882,466
883,466
884,474
885,478
886,481
887,497
888,501
889,497
890,487
891,481
892,477
893,468
894,466
895,451
896,456
897,442
898,420
899,420
900,411
901,427
902,463
903,495
904,510
905,508
906,507
907,489
908,504
909,513
910,507
911,511
912,512
913,512
914,530
915,521
916,527
917,541
918,537
919,533
920,513
921,506
922,504
923,486
924,486
925,475
926,479
927,474
928,464
929,479
930,487
931,504
932,520
933,525
934,528
935,516
936,518
937,519
938,508
939,502
940,492
941,491
942,499
943,517
944,522
945,518
946,520
947,528
948,519
949,507
950,491
951,496
952,498
953,494
954,486
955,484
956,502
957,518
958,530
959,550
960,549
961,545
962,526
963,505
964,499
965,485
966,483
967,480
968,480
969,486
970,481
971,474
972,486
973,505
974,516
975,517
976,522
977,536
978,538
979,543
980,537
981,521
982,508
983,506
984,504
985,498
986,499
987,493
988,498
989,513
990,529
991,536
992,547
993,563
994,558
995,540
996,543
997,542
998,535
999,531
1000,509
1001,503
1002,511
1003,522
1004,531
1005,523
1006,530
1007,526
1008,511
1009,513
1010,501
1011,492
1012,498
1013,514
1014,530
1015,547
1016,578
1017,590
1018,586
1019,580
1020,559
1021,557
1022,554
1023,555
1024,557
1025,544
1026,535
1027,533
1028,528
1029,524
1030,502
1031,486
1032,476
1033,491
1034,496
1035,496
1036,478
1037,471
1038,476
1039,479
1040,476
1041,496
1042,524
1043,537
1044,536
1045,523
1046,514
1047,501
1048,495
1049,508
1050,504
1051,494
1052,492
1053,504
1054,514
1055,516
1056,523
1057,528
1058,537
1059,532
1060,513
1061,494
1062,487
1063,493
1064,487
1065,474
1066,474
1067,475
1068,467
1069,450
1070,437
1071,447
1072,466
1073,484
1074,484
1075,448
1076,433
1077,435
1078,445
1079,447
1080,434
1081,445
1082,466
1083,463
1084,452
1085,444
1086,463
1087,479
1088,498
1089,517
1090,513
1091,513
1092,512
1093,501
1094,497
1095,499
1096,512
1097,512
1098,495
1099,492
1100,495
1101,489
1102,486
1103,488
1104,486
1105,478
1106,485
1107,499
1108,497
1109,486
1110,479
1111,487
1112,482
1113,470
1114,452
1115,429
1116,431
1117,455
1118,480
1119,500
1120,496
1121,496
1122,505
1123,517
1124,527
1125,526
1126,539
1127,545
1128,541
1129,532
1130,515
1131,521
1132,528
1133,523
1134,533
1135,537
1136,547
1137,548
1138,535
1139,527
1140,516
1141,514
1142,512
1143,516
1144,530
1145,524
1146,524
1147,525
1148,526
1149,550
1150,552
1151,548
1152,544
1153,535
1154,521
1155,507
1156,510
1157,519
1158,511
1159,502
1160,497
1161,503
1162,502
1163,505
1164,503
1165,502
1166,507
1167,517
1168,534
1169,541
1170,524
1171,503
1172,496
1173,495
1174,499
1175,500
1176,513
1177,532
1178,563
1179,581
1180,572
1181,551
1182,527
1183,528
1184,532
1185,519
1186,515
1187,526
1188,534
1189,540
1190,528
1191,525
1192,534
1193,531
1194,525
1195,511
1196,515
1197,514
1198,521
1199,543
1200,541
1201,541
1202,527
1203,514
1204,529
1205,528
1206,533
1207,532
1208,531
1209,532
1210,530
1211,538
1212,551
1213,542
1214,533
1215,516
1216,514
1217,513
1218,505
1219,501
1220,494
1221,490
1222,485
1223,471
1224,463
1225,461
1226,467
1227,480
1228,482
1229,484
1230,483
1231,500
1232,513
1233,521
1234,536
1235,537
1236,536
1237,532
1238,528
1239,530
1240,535
1241,536
1242,526
1243,511
1244,507
1245,496
1246,505
1247,511
1248,522
1249,532
1250,516
1251,521
1252,535
1253,548
1254,534
1255,508
1256,482
1257,463
1258,463
1259,450
1260,433
1261,427
1262,432
1263,434
1264,426
1265,408
1266,417
1267,439
1268,445
1269,439
1270,428
1271,440
1272,457
1273,463
1274,481
1275,488
1276,498
1277,511
1278,508
1279,510
1280,507
1281,510
1282,511
1283,502
1284,510
1285,502
1286,509
1287,513
1288,503
1289,498
1290,496
1291,508
1292,519
1293,514
1294,523
1295,529
1296,530
1297,526
1298,517
1299,514
1300,502
1301,504
1302,500
1303,496
1304,504
1305,510
1306,524
1307,519
1308,526
1309,514
1310,496
1311,489
1312,485
1313,484
1314,485
1315,476
1316,475
1317,489
1318,507
1319,519
1320,518
1321,523
1322,538
1323,540
1324,537
1325,526
1326,536
1327,547
1328,554
1329,566
1330,568
1331,574
1332,581
1333,578
1334,571
1335,561
1336,556
1337,551
1338,549
1339,538
1340,505
1341,476
1342,461
1343,475
1344,460
1345,432
1346,424
1347,421
1348,443
1349,459
1350,450
1351,439
1352,444
1353,470
1354,497
1355,497
1356,495
1357,504
1358,511
1359,525
1360,506
1361,497
1362,498
1363,483
1364,475
1365,459
1366,472
1367,506
1368,529
1369,545
1370,545
1371,546
1372,548
1373,542
1374,547
1375,537
1376,530
1377,511
1378,497
1379,505
1380,501
1381,510
1382,519
1383,514
1384,512
1385,513
1386,520
1387,526
1388,522
1389,526
1390,513
1391,513
1392,508
1393,487
1394,471
1395,432
1396,415
1397,414
1398,415
1399,426
1400,432
1401,447
1402,472
1403,494
1404,512
1405,506
1406,523
1407,536
1408,537
1409,547
1410,539
1411,547
1412,559
1413,574
1414,593
1415,603
1416,583
1417,573
1418,557
1419,556
1420,546
1421,547
1422,547
1423,530
1424,539
1425,546
1426,565
1427,578
1428,589
1429,601
1430,591
1431,589
1432,591
1433,581
1434,577
1435,557
1436,559
1437,565
1438,575
1439,584
1440,571
1441,563
1442,555
1443,546
1444,543
1445,533
1446,539
1447,533
1448,524
1449,526
1450,512
1451,508
1452,514
1453,521
1454,524
1455,518
1456,531
1457,540
1458,541
1459,540
1460,536
1461,534
1462,527
1463,500
1464,487
1465,493
1466,501
1467,519
1468,514
1469,494
1470,474
1471,484
1472,504
1473,521
1474,543
1475,549
1476,563
1477,579
1478,583
1479,583
1480,569
1481,569
1482,564
1483,538
1484,526
1485,514
1486,513
1487,507
1488,491
1489,482
1490,476
1491,491
1492,504
1493,513
1494,529
1495,526
1496,531
1497,553
1498,573
1499,572
1500,552
1501,545
1502,539
1503,539
1504,530
1505,515
1506,498
1507,503
1508,496
1509,499
1510,500
1511,509
1512,516
1513,514
1514,516
1515,502
1516,488
1517,471
1518,453
1519,460
1520,454
1521,450
1522,445
1523,458
1524,471
1525,471
1526,490
1527,505
1528,497
1529,491
1530,478
1531,468
1532,463
1533,453
1534,447
1535,431
1536,437
1537,452
1538,473
1539,480
1540,467
1541,449
1542,435
1543,438
1544,430
1545,413
1546,410
1547,415
1548,435
1549,455
1550,472
1551,491
1552,489
1553,485
1554,489
1555,482
1556,494
1557,513
1558,534
1559,558
1560,560
1561,568
1562,573
1563,577
1564,599
1565,576
1566,582
1567,584
1568,581
1569,577
1570,565
1571,554
1572,556
1573,563
1574,553
1575,524
1576,509
1577,507
1578,503
1579,503
1580,499
1581,516
1582,532
1583,537
1584,534
1585,522
1586,527
1587,540
1588,540
1589,546
1590,547
1591,558
1592,558
1593,540
1594,528
1595,525
1596,523
1597,516
1598,506
1599,516
1600,512
1601,501
1602,489
1603,490
1604,510
1605,503
1606,500
1607,487
1608,469
1609,458
1610,433
1611,423
1612,430
1613,442
1614,467
1615,481
1616,499
1617,512
1618,520
1619,521
1620,515
1621,524
1622,517
1623,515
1624,506
1625,491
1626,486
1627,486
1628,488
1629,487
1630,485
1631,492
1632,494
1633,500
1634,492
1635,483
1636,491
1637,512
1638,519
1639,506
1640,471
1641,468
1642,470
1643,444
1644,429
1645,419
1646,428
1647,442
1648,454
1649,482
1650,497
1651,511
1652,513
1653,511
1654,517
1655,513
1656,517
1657,508
1658,497
1659,500
1660,487
1661,496
1662,496
1663,505
1664,523
1665,517
1666,518
1667,518
1668,521
1669,504
1670,478
1671,456
1672,450
1673,472
1674,491
1675,505
1676,523
1677,510
1678,517
1679,536
1680,545
1681,566
1682,583
1683,574
1684,553
1685,527
1686,524
1687,524
1688,536
1689,554
1690,555
1691,559
1692,553
1693,540
1694,539
1695,536
1696,546
1697,522
1698,512
1699,508
1700,500
1701,507
1702,513
1703,512
1704,519
1705,523
1706,535
1707,531
1708,520
1709,517
1710,506
1711,509
1712,517
1713,510
1714,511
1715,514
1716,533
1717,548
1718,543
1719,546
1720,546
1721,550
1722,543
1723,518
1724,502
1725,487
1726,498
1727,512
1728,519
1729,526
1730,519
1731,514
1732,518
1733,516
1734,528
1735,519
1736,510
1737,517
1738,517
1739,515
1740,503
1741,508
1742,516
1743,515
1744,496
1745,477
1746,486
1747,504
1748,514
1749,516
1750,504
1751,514
1752,519
1753,515
1754,519
1755,502
1756,483
1757,484
1758,495
1759,499
1760,494
1761,492
1762,502
1763,516
1764,507
1765,495
1766,493
1767,493
1768,501
1769,505
1770,507
1771,502
1772,501
1773,508
1774,517
1775,519
1776,535
1777,555
1778,556
1779,547
1780,531
1781,526
1782,521
1783,519
1784,527
1785,520
1786,510
1787,490
1788,472
1789,465
1790,453
1791,467
1792,495
1793,496
1794,493
1795,487
1796,491
1797,496
1798,501
1799,523
1800,511
1801,507
1802,504
1803,483
1804,456
1805,448
1806,463
1807,479
1808,482
1809,487
1810,495
1811,517
1812,551
1813,544
1814,525
1815,498
1816,494
1817,481
1818,459
1819,443
1820,422
1821,420
1822,439
1823,452
1824,471
1825,469
1826,471
1827,483
1828,499
1829,519
1830,519
1831,535
1832,554
1833,560
1834,562
1835,538
1836,510
1837,496
1838,484
1839,485
1840,456
1841,448
1842,463
1843,481
1844,505
1845,504
1846,511
1847,518
1848,516
1849,531
1850,531
1851,533
1852,536
1853,540
1854,546
1855,543
1856,544
1857,550
1858,545
1859,542
1860,526
1861,530
1862,532
1863,519
1864,508
1865,504
1866,510
1867,514
1868,497
1869,481
1870,469
1871,456
1872,452
1873,462
1874,459
1875,456
1876,443
1877,438
1878,463
1879,479
1880,472
1881,451
1882,423
1883,415
1884,424
1885,427
1886,434
1887,446
1888,460
1889,472
1890,481
1891,508
1892,527
1893,522
1894,528
1895,523
1896,529
1897,540
1898,535
1899,520
1900,505
1901,508
1902,506
1903,496
1904,503
1905,505
1906,507
1907,521
1908,534
1909,549
1910,548
1911,561
1912,585
1913,596
1914,599
1915,591
1916,586
1917,575
1918,558
1919,540
1920,519
1921,504
1922,504
1923,493
1924,485
1925,485
1926,506
1927,516
1928,506
1929,490
1930,451
1931,429
1932,412
1933,404
1934,423
1935,438
1936,463
1937,492
1938,503
1939,512
1940,511
1941,527
1942,537
1943,540
1944,550
1945,540
1946,527
1947,519
1948,530
1949,531
1950,529
1951,550
1952,572
1953,569
1954,570
1955,553
1956,531
1957,510
1958,510
1959,520
1960,521
1961,515
1962,508
1963,504
1964,497
1965,485
1966,484
1967,494
1968,517
1969,527
1970,518
1971,519
1972,530
1973,528
1974,495
1975,450
1976,415
1977,415
1978,421
1979,435
1980,433
1981,448
1982,460
1983,462
1984,475
1985,462
1986,454
1987,454
1988,463
1989,484
1990,481
1991,493
1992,504
1993,510
1994,516
1995,519
1996,536
1997,553
1998,532
1999,521
