timestamp,signal
0,523
1,534
2,542
3,546
4,544
5,540
6,531
7,517
8,495
9,468
10,460
11,468
12,472
13,465
14,455
15,454
16,458
17,460
18,454
19,446
20,450
21,467
22,490
23,503
24,491
25,494
26,495
27,503
28,498
29,485
30,460
31,434
32,433
33,417
34,405
35,414
36,425
37,431
38,443
39,453
40,471
41,483
42,488
43,493
44,487
45,486
46,485
47,477
48,487
49,501
50,507
51,508
52,510
53,513
54,514
55,523
56,530
57,521
58,499
59,483
60,492
61,502
62,508
63,511
64,511
65,523
66,529
67,536
68,536
69,532
70,526
71,531
72,521
73,512
74,501
75,508
76,516
77,523
78,537
79,539
80,545
81,537
82,539
83,562
84,585
85,602
86,600
87,578
88,556
89,531
90,522
91,518
92,507
93,517
94,527
95,543
96,565
97,587
98,590
99,573
100,559
101,543
102,531
103,519
104,512
105,531
106,553
107,560
108,548
109,531
110,533
111,528
112,509
113,486
114,472
115,477
116,498
117,514
118,508
119,495
120,492
121,492
122,502
123,497
124,489
125,499
126,506
127,515
128,507
129,496
130,487
131,499
132,510
133,512
134,531
135,558
136,575
137,587
138,597
139,594
140,590
141,586
142,573
143,555
144,533
145,515
146,505
147,512
148,498
149,485
150,482
151,476
152,471
153,463
154,459
155,474
156,499
157,521
158,519
159,509
160,503
161,506
162,515
163,519
164,508
165,508
166,520
167,522
168,518
169,517
170,520
171,521
172,518
173,516
174,516
175,516
176,519
177,524
178,543
179,543
180,537
181,536
182,543
183,543
184,522
185,518
186,524
187,539
188,546
189,533
190,523
191,508
192,492
193,468
194,449
195,455
196,468
197,483
198,490
199,492
200,506
201,517
202,518
203,527
204,533
205,539
206,523
207,515
208,505
209,483
210,469
211,472
212,491
213,496
214,495
215,495
216,490
217,476
218,462
219,435
220,418
221,423
222,428
223,406
224,371
225,365
226,385
227,423
228,453
229,462
230,479
231,496
232,522
233,540
234,527
235,524
236,515
237,518
238,511
239,516
240,529
241,547
242,568
243,578
244,572
245,566
246,567
247,551
248,544
249,537
250,546
251,553
252,559
253,563
254,563
255,563
256,557
257,558
258,555
259,547
260,554
261,547
262,525
263,502
264,476
265,472
266,485
267,503
268,508
269,501
270,515
271,515
272,515
273,513
274,505
275,505
276,516
277,531
278,537
279,528
280,509
281,513
282,496
283,492
284,494
285,505
286,519
287,517
288,519
289,534
290,558
291,583
292,604
293,605
294,585
295,570
296,557
297,537
298,537
299,531
300,527
301,531
302,536
303,551
304,555
305,568
306,579
307,568
308,554
309,553
310,559
311,560
312,567
313,579
314,574
315,574
316,568
317,567
318,581
319,589
320,602
321,599
322,569
323,533
324,501
325,501
326,518
327,533
328,547
329,556
330,554
331,552
332,547
333,539
334,518
335,515
336,511
337,505
338,512
339,512
340,519
341,521
342,513
343,491
344,465
345,465
346,476
347,489
348,496
349,487
350,487
351,497
352,499
353,497
354,483
355,475
356,486
357,487
358,480
359,482
360,504
361,507
362,514
363,521
364,527
365,529
366,533
367,534
368,508
369,473
370,457
371,451
372,455
373,457
374,439
375,441
376,459
377,487
378,493
379,485
380,491
381,512
382,524
383,535
384,513
385,514
386,522
387,531
388,521
389,500
390,505
391,512
392,513
393,501
394,496
395,489
396,487
397,474
398,460
399,451
400,463
401,487
402,504
403,511
404,492
405,476
406,465
407,474
408,477
409,470
410,470
411,475
412,491
413,484
414,467
415,463
416,472
417,483
418,469
419,457
420,462
421,469
422,496
423,507
424,494
425,497
426,510
427,510
428,523
429,537
430,551
431,558
432,568
433,549
434,536
435,525
436,527
437,525
438,506
439,484
440,476
441,470
442,480
443,478
444,473
445,465
446,478
447,491
448,498
449,497
450,507
451,509
452,513
453,532
454,547
455,556
456,556
457,542
458,548
459,558
460,567
461,568
462,562
463,564
464,562
465,552
466,529
467,496
468,486
469,478
470,486
471,491
472,491
473,475
474,473
475,486
476,493
477,503
478,499
479,488
480,501
481,505
482,512
483,505
484,494
485,490
486,493
487,505
488,515
489,514
490,518
491,515
492,510
493,495
494,482
495,472
496,475
497,496
498,500
499,491
500,499
501,494
502,494
503,480
504,455
505,451
506,435
507,421
508,408
509,415
510,440
511,467
512,486
513,498
514,507
515,531
516,551
517,563
518,584
519,600
520,609
521,595
522,582
523,577
524,577
525,583
526,583
527,578
528,587
529,588
530,573
531,558
532,553
533,534
534,485
535,450
536,445
537,455
538,457
539,454
540,462
541,462
542,473
543,480
544,458
545,441
546,436
547,444
548,438
549,430
550,429
551,431
552,440
553,442
554,436
555,441
556,459
557,488
558,509
559,512
560,520
561,533
562,547
563,539
564,524
565,534
566,556
567,574
568,550
569,527
570,523
571,508
572,498
573,482
574,469
575,461
576,462
577,479
578,478
579,468
580,467
581,486
582,514
583,529
584,529
585,530
586,523
587,514
588,517
589,521
590,536
591,550
592,559
593,569
594,559
595,550
596,547
597,537
598,527
599,523
600,540
601,548
602,557
603,557
604,554
605,543
606,547
607,558
608,551
609,525
610,508
611,505
612,502
613,507
614,514
615,520
616,515
617,503
618,501
619,505
620,518
621,534
622,555
623,550
624,524
625,502
626,475
627,463
628,440
629,428
630,423
631,428
632,446
633,444
634,439
635,439
636,449
637,457
638,471
639,472
640,470
641,473
642,481
643,489
644,488
645,496
646,505
647,508
648,498
649,488
650,490
651,508
652,527
653,530
654,530
655,527
656,518
657,530
658,528
659,507
660,504
661,500
662,492
663,491
664,496
665,510
666,531
667,546
668,556
669,553
670,558
671,550
672,536
673,529
674,524
675,519
676,516
677,500
678,491
679,501
680,511
681,514
682,506
683,519
684,515
685,517
686,518
687,521
688,525
689,511
690,509
691,513
692,516
693,506
694,487
695,488
696,486
697,481
698,476
699,479
700,491
701,489
702,480
703,471
704,457
705,441
706,428
707,430
708,433
709,438
710,448
711,444
712,464
713,472
714,466
715,460
716,462
717,477
718,472
719,465
720,468
721,474
722,466
723,473
724,487
725,513
726,540
727,551
728,540
729,519
730,515
731,524
732,534
733,536
734,535
735,535
736,533
737,540
738,529
739,497
740,475
741,460
742,453
743,449
744,436
745,448
746,481
747,496
748,511
749,510
750,512
751,517
752,526
753,540
754,551
755,568
756,579
757,579
758,583
759,577
760,574
761,580
762,588
763,575
764,549
765,536
766,522
767,522
768,509
769,516
770,521
771,546
772,558
773,571
774,559
775,550
776,549
777,556
778,554
779,537
780,535
781,527
782,513
783,510
784,505
785,507
786,512
787,523
788,528
789,519
790,518
791,523
792,531
793,527
794,509
795,510
796,514
797,529
798,515
799,511
800,515
801,519
802,518
803,531
804,547
805,553
806,545
807,541
808,548
809,550
810,544
811,513
812,489
813,460
814,446
815,455
816,465
817,469
818,486
819,496
820,512
821,518
822,513
823,495
824,486
825,503
826,522
827,543
828,552
829,548
830,554
831,554
832,556
833,551
834,539
835,543
836,557
837,575
838,579
839,561
840,555
841,555
842,561
843,563
844,553
845,541
846,528
847,517
848,491
849,459
850,449
851,458
852,466
853,469
854,452
855,444
856,460
857,483
858,488
859,470
860,449
861,432
862,437
863,444
864,442
865,459
866,475
867,483
868,494
869,497
870,501
871,508
872,516
873,526
874,540
875,552
876,571
877,577
878,572
879,566
880,567
881,562
882,548
883,544
884,548
885,553
886,558
887,552
888,543
889,533
890,527
891,515
892,500
893,490
894,480
895,480
896,494
897,507
898,524
899,529
900,526
901,523
902,502
903,505
904,487
905,483
906,483
907,481
908,487
909,500
910,522
911,532
912,536
913,532
914,517
915,516
916,506
917,501
918,489
919,470
920,466
921,456
922,446
923,427
924,398
925,391
926,408
927,423
928,444
929,444
930,456
931,466
932,470
933,487
934,498
935,512
936,525
937,539
938,568
939,587
940,604
941,609
942,591
943,578
944,560
945,553
946,543
947,531
948,512
949,488
950,480
951,479
952,481
953,482
954,478
955,495
956,518
957,517
958,500
959,480
960,476
961,483
962,494
963,493
964,488
965,504
966,524
967,531
968,533
969,526
970,522
971,508
972,506
973,489
974,477
975,482
976,496
977,513
978,516
979,508
980,502
981,477
982,476
983,460
984,462
985,483
986,499
987,515
988,537
989,536
990,538
991,544
992,549
993,543
994,535
995,530
996,515
997,498
998,491
999,490
1000,496
1001,495
1002,480
1003,461
1004,455
1005,473
1006,497
1007,521
1008,518
1009,497
1010,495
1011,510
1012,528
1013,548
1014,545
1015,539
1016,515
1017,499
1018,497
1019,490
1020,483
1021,475
1022,474
1023,466
1024,462
1025,457
1026,460
1027,482
1028,484
1029,483
1030,493
1031,497
1032,498
1033,487
1034,472
1035,474
1036,481
1037,470
1038,467
1039,462
1040,475
1041,495
1042,515
1043,525
1044,524
1045,526
1046,517
1047,508
1048,489
1049,465
1050,463
1051,472
1052,481
1053,481
1054,464
1055,459
1056,462
1057,468
1058,480
1059,470
1060,479
1061,481
1062,480
1063,498
1064,505
1065,520
1066,533
1067,531
1068,513
1069,492
1070,490
1071,495
1072,501
1073,521
1074,528
1075,550
1076,560
1077,559
1078,529
1079,483
1080,467
1081,467
1082,469
1083,470
1084,467
1085,481
1086,481
1087,476
1088,470
1089,464
1090,474
1091,490
1092,513
1093,516
1094,486
1095,487
1096,480
1097,481
1098,467
1099,448
1100,457
1101,462
1102,463
1103,462
1104,470
1105,464
1106,446
1107,444
1108,437
1109,431
1110,443
1111,429
1112,435
1113,437
1114,435
1115,449
1116,467
1117,492
1118,513
1119,525
1120,544
1121,556
1122,563
1123,580
1124,584
1125,585
1126,590
1127,593
1128,572
1129,550
1130,544
1131,551
1132,568
1133,556
1134,525
1135,519
1136,526
1137,513
1138,520
1139,519
1140,519
1141,516
1142,512
1143,507
1144,499
1145,510
1146,517
1147,516
1148,500
1149,486
1150,483
1151,492
1152,517
1153,535
1154,551
1155,567
1156,586
1157,593
1158,584
1159,563
1160,548
1161,532
1162,520
1163,519
1164,517
1165,515
1166,515
1167,527
1168,560
1169,590
1170,619
1171,638
1172,624
1173,604
1174,596
1175,599
1176,603
1177,600
1178,597
1179,593
1180,594
1181,594
1182,585
1183,577
1184,559
1185,556
1186,543
1187,538
1188,538
1189,520
1190,511
1191,509
1192,496
1193,497
1194,499
1195,491
1196,496
1197,504
1198,509
1199,501
1200,494
1201,490
1202,488
1203,499
1204,505
1205,520
1206,537
1207,549
1208,547
1209,526
1210,524
1211,531
1212,531
1213,522
1214,501
1215,506
1216,513
1217,526
1218,540
1219,531
1220,535
1221,528
1222,517
1223,492
1224,478
1225,478
1226,487
1227,499
1228,492
1229,484
1230,486
1231,475
1232,471
1233,452
1234,439
1235,449
1236,476
1237,492
1238,505
1239,504
1240,510
1241,523
1242,532
1243,536
1244,547
1245,569
1246,590
1247,591
1248,593
1249,589
1250,591
1251,592
1252,581
1253,566
1254,546
1255,542
1256,529
1257,516
1258,493
1259,472
1260,473
1261,472
1262,480
1263,487
1264,484
1265,487
1266,494
1267,502
1268,506
1269,505
1270,509
1271,500
1272,487
1273,473
1274,442
1275,423
1276,440
1277,451
1278,445
1279,436
1280,430
1281,416
1282,424
1283,422
1284,415
1285,397
1286,383
1287,394
1288,387
1289,374
1290,365
1291,362
1292,376
1293,377
1294,387
1295,408
1296,433
1297,448
1298,467
1299,480
1300,479
1301,494
1302,503
1303,508
1304,494
1305,496
1306,498
1307,499
1308,501
1309,503
1310,519
1311,531
1312,537
1313,519
1314,492
1315,476
1316,480
1317,486
1318,483
1319,468
1320,474
1321,477
1322,481
1323,492
1324,496
1325,504
1326,511
1327,519
1328,530
1329,543
1330,547
1331,536
1332,508
1333,490
1334,479
1335,485
1336,497
1337,492
1338,499
1339,500
1340,512
1341,526
1342,524
1343,509
1344,496
1345,501
1346,503
1347,490
1348,467
1349,455
1350,464
1351,479
1352,496
1353,513
1354,526
1355,539
1356,562
1357,576
1358,564
1359,558
1360,574
1361,581
1362,574
1363,545
1364,513
1365,504
1366,507
1367,514
1368,506
1369,502
1370,506
1371,514
1372,533
1373,528
1374,515
1375,517
1376,528
1377,527
1378,518
1379,496
1380,509
1381,543
1382,556
1383,568
1384,565
1385,564
1386,558
1387,547
1388,550
1389,550
1390,556
1391,559
1392,556
1393,560
1394,564
1395,572
1396,572
1397,574
1398,575
1399,576
1400,583
1401,601
1402,608
1403,600
1404,597
1405,585
1406,583
1407,595
1408,592
1409,577
1410,562
1411,549
1412,553
1413,551
1414,532
1415,521
1416,523
1417,543
1418,556
1419,543
1420,529
1421,522
1422,524
1423,524
1424,521
1425,516
1426,502
1427,489
1428,504
1429,513
1430,513
1431,523
1432,523
1433,525
1434,529
1435,537
1436,543
1437,547
1438,559
1439,553
1440,555
1441,557
1442,563
1443,571
1444,584
1445,598
1446,595
1447,591
1448,578
1449,552
1450,544
1451,526
1452,512
1453,506
1454,494
1455,499
1456,516
1457,543
1458,543
1459,534
1460,537
1461,540
1462,546
1463,540
1464,515
1465,518
1466,507
1467,515
1468,505
1469,482
1470,474
1471,479
1472,491
1473,502
1474,501
1475,503
1476,510
1477,512
1478,505
1479,489
1480,494
1481,508
1482,514
1483,498
1484,485
1485,479
1486,472
1487,468
1488,447
1489,432
1490,427
1491,428
1492,430
1493,417
1494,414
1495,427
1496,451
1497,470
1498,476
1499,478
1500,492
1501,497
1502,489
1503,476
1504,455
1505,457
1506,465
1507,465
1508,471
1509,466
1510,467
1511,472
1512,485
1513,507
1514,519
1515,525
1516,527
1517,521
1518,515
1519,508
1520,522
1521,535
1522,542
1523,537
1524,528
1525,516
1526,499
1527,497
1528,506
1529,507
1530,508
1531,509
1532,510
1533,501
1534,476
1535,469
1536,478
1537,476
1538,465
1539,449
1540,448
1541,452
1542,463
1543,469
1544,469
1545,491
1546,512
1547,521
1548,527
1549,521
1550,527
1551,522
1552,520
1553,528
1554,540
1555,551
1556,561
1557,550
1558,539
1559,540
1560,561
1561,570
1562,571
1563,580
1564,574
1565,588
1566,576
1567,583
1568,591
1569,595
1570,592
1571,579
1572,560
1573,541
1574,531
1575,527
1576,508
1577,494
1578,483
1579,480
1580,495
1581,487
1582,478
1583,475
1584,467
1585,475
1586,495
1587,511
1588,514
1589,512
1590,513
1591,499
1592,481
1593,442
1594,417
1595,415
1596,421
1597,420
1598,414
1599,411
1600,423
1601,437
1602,441
1603,457
1604,462
1605,467
1606,480
1607,486
1608,483
1609,482
1610,489
1611,503
1612,516
1613,513
1614,501
1615,487
1616,490
1617,509
1618,510
1619,500
1620,502
1621,507
1622,510
1623,508
1624,491
1625,488
1626,487
1627,486
1628,487
1629,495
1630,525
1631,553
1632,568
1633,575
1634,580
1635,592
1636,605
1637,611
1638,614
1639,600
1640,585
1641,581
1642,582
1643,585
1644,573
1645,551
1646,532
1647,504
1648,485
1649,456
1650,444
1651,459
1652,478
1653,485
1654,472
1655,455
1656,433
1657,427
1658,434
1659,432
1660,445
1661,460
1662,471
1663,473
1664,462
1665,467
1666,485
1667,507
1668,532
1669,518
1670,515
1671,514
1672,511
1673,497
1674,475
1675,472
1676,474
1677,479
1678,491
1679,505
1680,529
1681,542
1682,545
1683,539
1684,530
1685,513
1686,502
1687,499
1688,488
1689,476
1690,474
1691,472
1692,472
1693,459
1694,456
1695,456
1696,462
1697,472
1698,481
1699,483
1700,495
1701,515
1702,528
1703,534
1704,502
1705,504
1706,513
1707,519
1708,521
1709,521
1710,531
1711,537
1712,536
1713,529
1714,520
1715,516
1716,516
1717,524
1718,544
1719,546
1720,549
1721,555
1722,551
1723,540
1724,515
1725,513
1726,522
1727,528
1728,518
1729,505
1730,509
1731,520
1732,522
1733,499
1734,479
1735,483
1736,505
1737,528
1738,538
1739,533
1740,542
1741,555
1742,549
1743,551
1744,548
1745,545
1746,549
1747,560
1748,564
1749,555
1750,542
1751,520
1752,513
1753,509
1754,499
1755,500
1756,508
1757,510
1758,492
1759,472
1760,475
1761,467
1762,470
1763,462
1764,445
1765,449
1766,457
1767,481
1768,461
1769,441
1770,448
1771,456
1772,470
1773,480
1774,483
1775,495
1776,503
1777,508
1778,507
1779,496
1780,498
1781,512
1782,511
1783,502
1784,484
1785,476
1786,474
1787,480
1788,484
1789,495
1790,499
1791,494
1792,492
1793,489
1794,478
1795,477
1796,469
1797,479
1798,486
1799,483
1800,496
1801,507
1802,511
1803,502
1804,480
1805,478
1806,471
1807,464
1808,463
1809,467
1810,481
1811,486
1812,509
1813,534
1814,533
1815,527
1816,520
1817,500
1818,495
1819,496
1820,497
1821,495
1822,494
1823,494
1824,488
1825,506
1826,544
1827,573
1828,578
1829,572
1830,565
1831,556
1832,533
1833,513
1834,502
1835,512
1836,524
1837,531
1838,535
1839,533
1840,526
1841,499
1842,481
1843,486
1844,496
1845,513
1846,533
1847,546
1848,567
1849,586
1850,601
1851,589
1852,567
1853,556
1854,542
1855,541
1856,540
1857,530
1858,532
1859,534
1860,542
1861,557
1862,573
1863,576
1864,573
1865,569
1866,560
1867,567
1868,579
1869,584
1870,587
1871,571
1872,557
1873,555
1874,550
1875,547
1876,542
1877,534
1878,520
1879,501
1880,506
1881,522
1882,536
1883,534
1884,524
1885,527
1886,539
1887,550
1888,557
1889,549
1890,527
1891,512
1892,494
1893,467
1894,427
1895,407
1896,399
1897,408
1898,396
1899,380
1900,380
1901,387
1902,412
1903,456
1904,523
1905,549
1906,571
1907,579
1908,583
1909,587
1910,593
1911,600
1912,595
1913,593
1914,579
1915,565
1916,547
1917,526
1918,516
1919,506
1920,508
1921,497
1922,481
1923,463
1924,434
1925,431
1926,449
1927,467
1928,466
1929,464
1930,480
1931,499
1932,519
1933,535
1934,537
1935,537
1936,540
1937,543
1938,533
1939,505
1940,496
1941,487
1942,486
1943,478
1944,464
1945,456
1946,463
1947,489
1948,486
1949,467
1950,464
1951,461
1952,460
1953,455
1954,449
1955,454
1956,473
1957,479
1958,484
1959,484
1960,495
1961,499
1962,503
1963,491
1964,467
1965,465
1966,464
1967,472
1968,478
1969,463
1970,461
1971,472
1972,486
1973,492
1974,485
1975,484
1976,500
1977,504
1978,494
1979,467
1980,466
1981,465
1982,453
1983,462
1984,480
1985,501
1986,519
1987,536
1988,546
1989,552
1990,554
1991,555
1992,546
1993,544
1994,547
1995,563
1996,548
1997,548
1998,536
1999,518
