timestamp,signal
0,606
1,611
2,629
3,653
4,647
5,637
6,647
7,659
8,684
9,704
10,720
11,728
12,729
13,738
14,727
15,712
16,704
17,698
18,700
19,709
20,718
21,721
22,715
23,715
24,720
25,724
26,710
27,680
28,667
29,678
30,693
31,695
32,700
33,678
34,655
35,654
36,656
37,655
38,631
39,608
40,590
41,580
42,588
43,620
44,690
45,734
46,760
47,766
48,768
49,780
50,771
51,757
52,760
53,764
54,777
55,790
56,788
57,771
58,780
59,793
60,793
61,779
62,762
63,729
64,688
65,656
66,630
67,593
68,573
69,575
70,602
71,640
72,683
73,711
74,719
75,713
76,693
77,670
78,641
79,606
80,566
81,535
82,514
83,491
84,457
85,428
86,387
87,341
88,322
89,313
90,317
91,337
92,366
93,382
94,382
95,363
96,355
97,368
98,356
99,337
100,323
101,323
102,334
103,343
104,355
105,362
106,372
107,380
108,358
109,349
110,358
111,373
112,393
113,410
114,420
115,419
116,435
117,454
118,450
119,432
120,397
121,377
122,379
123,374
124,350
125,328
126,326
127,327
128,323
129,319
130,299
131,304
132,327
133,359
134,373
135,383
136,402
137,421
138,436
139,446
140,455
141,466
142,471
143,498
144,499
145,500
146,500
147,494
148,504
149,499
150,499
151,496
152,487
153,488
154,466
155,434
156,428
157,437
158,445
159,447
160,444
161,446
162,448
163,465
164,495
165,504
166,508
167,511
168,525
169,513
170,506
171,505
172,512
173,519
174,511
175,490
176,492
177,509
178,525
179,531
180,531
181,540
182,548
183,560
184,559
185,547
186,542
187,550
188,562
189,563
190,557
191,557
192,566
193,570
194,546
195,516
196,504
197,493
198,498
199,491
200,485
201,484
202,493
203,478
204,478
205,477
206,491
207,498
208,508
209,510
210,504
211,516
212,531
213,541
214,538
215,527
216,515
217,520
218,529
219,532
220,514
221,508
222,508
223,498
224,491
225,480
226,484
227,483
228,472
229,455
230,446
231,459
232,468
233,474
234,467
235,433
236,423
237,420
238,431
239,438
240,438
241,450
242,473
243,500
244,509
245,496
246,487
247,478
248,470
249,458
250,435
251,415
252,403
253,398
254,391
255,393
256,397
257,393
258,392
259,385
260,374
261,364
262,366
263,358
264,360
265,379
266,401
267,429
268,446
269,459
270,457
271,460
272,460
273,465
274,460
275,442
276,429
277,415
278,411
279,403
280,398
281,398
282,403
283,419
284,430
285,437
286,440
287,435
288,423
289,407
290,403
291,428
292,434
293,444
294,453
295,457
296,473
297,499
298,498
299,514
300,519
301,521
302,524
303,518
304,508
305,483
306,467
307,447
308,435
309,417
310,403
311,395
312,390
313,398
314,397
315,390
316,381
317,397
318,409
319,418
320,421
321,439
322,432
323,437
324,459
325,468
326,488
327,511
328,528
329,522
330,490
331,473
332,473
333,469
334,463
335,467
336,479
337,483
338,489
339,493
340,494
341,507
342,521
343,529
344,522
345,505
346,488
347,496
348,504
349,502
350,485
351,483
352,491
353,491
354,471
355,460
356,476
357,490
358,498
359,489
360,462
361,447
362,444
363,448
364,428
365,414
366,396
367,388
368,378
369,395
370,426
371,446
372,470
373,486
374,478
375,463
376,462
377,470
378,494
379,505
380,503
381,518
382,539
383,556
384,562
385,555
386,549
387,544
388,542
389,521
390,493
391,485
392,487
393,491
394,487
395,482
396,495
397,506
398,513
399,514
400,521
401,535
402,546
403,543
404,536
405,529
406,540
407,546
408,546
409,551
410,542
411,542
412,555
413,566
414,571
415,561
416,559
417,560
418,568
419,568
420,556
421,555
422,557
423,566
424,562
425,547
426,542
427,537
428,540
429,540
430,527
431,527
432,549
433,552
434,558
435,551
436,551
437,547
438,545
439,536
440,514
441,510
442,519
443,531
444,529
445,516
446,510
447,505
448,515
449,510
450,494
451,495
452,498
453,513
454,543
455,566
456,583
457,599
458,604
459,582
460,562
461,556
462,551
463,546
464,527
465,499
466,501
467,508
468,512
469,508
470,487
471,489
472,504
473,516
474,504
475,484
476,480
477,471
478,476
479,494
480,524
481,558
482,580
483,591
484,593
485,583
486,572
487,571
488,576
489,581
490,582
491,582
492,562
493,545
494,527
495,509
496,503
497,514
498,519
499,527
500,524
501,529
502,549
503,573
504,569
505,547
506,542
507,554
508,547
509,522
510,476
511,460
512,474
513,495
514,496
515,485
516,490
517,502
518,520
519,524
520,515
521,521
522,529
523,535
524,535
525,529
526,525
527,515
528,510
529,501
530,481
531,478
532,482
533,495
534,496
535,487
536,496
537,496
538,480
539,462
540,446
541,437
542,427
543,424
544,427
545,416
546,436
547,447
548,454
549,462
550,465
551,461
552,455
553,450
554,446
555,450
556,462
557,476
558,490
559,492
560,493
561,498
562,505
563,519
564,511
565,489
566,467
567,459
568,455
569,453
570,447
571,449
572,460
573,472
574,471
575,467
576,476
577,486
578,506
579,1018
580,1018
581,1018
582,1018
583,1018
584,1018
585,1018
586,1018
587,1018
588,1018
589,1018
590,1018
591,1018
592,1018
593,1018
594,1018
595,1018
596,1018
597,1018
598,1018
599,1018
600,1017
601,0
602,0
603,0
604,0
605,0
606,0
607,0
608,0
609,0
610,0
611,0
612,0
613,0
614,0
615,0
616,0
617,0
618,0
619,0
620,0
621,0
622,0
623,0
624,0
625,0
626,0
627,0
628,0
629,0
630,0
631,0
632,0
633,0
634,0
635,0
636,0
637,0
638,0
639,0
640,0
641,0
642,0
643,0
644,0
645,0
646,0
647,0
648,0
649,0
650,0
651,0
652,0
653,0
654,0
655,0
656,0
657,0
658,0
659,0
660,0
661,0
662,0
663,0
664,0
665,0
666,0
667,0
668,0
669,0
670,0
671,0
672,0
673,0
674,0
675,0
676,0
677,0
678,0
679,0
680,0
681,0
682,0
683,0
684,0
685,0
686,0
687,0
688,0
689,0
690,0
691,0
692,0
693,0
694,0
695,0
696,0
697,0
698,0
699,0
700,0
701,0
702,0
703,0
704,0
705,0
706,0
707,0
708,0
709,0
710,0
711,0
712,0
713,0
714,0
715,0
716,0
717,0
718,0
719,0
720,0
721,0
722,0
723,0
724,0
725,0
726,0
727,0
728,0
729,0
730,0
731,0
732,0
733,0
734,0
735,0
736,0
737,0
738,0
739,0
740,0
741,0
742,0
743,0
744,0
745,0
746,0
747,0
748,0
749,0
750,0
751,0
752,0
753,0
754,0
755,0
756,0
757,0
758,0
759,0
760,0
761,0
762,0
763,0
764,0
765,0
766,0
767,0
768,0
769,0
770,0
771,0
772,0
773,0
774,0
775,67
776,96
777,101
778,104
779,104
780,109
781,125
782,131
783,169
784,206
785,241
786,280
787,323
788,379
789,408
790,434
791,443
792,460
793,485
794,507
795,527
796,550
797,568
798,575
799,575
800,584
801,608
802,626
803,644
804,671
805,712
806,770
807,826
808,878
809,902
810,912
811,926
812,933
813,948
814,961
815,956
816,921
817,889
818,876
819,876
820,897
821,934
822,965
823,982
824,992
825,1017
826,1018
827,1018
828,1018
829,1018
830,1018
831,1018
832,1017
833,1018
834,1018
835,1018
836,1018
837,1018
838,1018
839,1018
840,1018
841,1018
842,1018
843,1018
844,1018
845,1018
846,1018
847,1018
848,1018
849,1018
850,1018
851,1018
852,1018
853,1018
854,1018
855,1018
856,1018
857,1018
858,1018
859,1018
860,1018
861,1018
862,1018
863,1018
864,1018
865,1018
866,1018
867,1018
868,1018
869,1018
870,1018
871,1018
872,1018
873,1018
874,1018
875,1018
876,1018
877,1018
878,1018
879,1018
880,1018
881,1018
882,1018
883,1018
884,1018
885,1018
886,1018
887,1018
888,1018
889,1018
890,1018
891,1018
892,1018
893,1018
894,1018
895,1018
896,1018
897,1018
898,1018
899,1018
900,1018
901,1018
902,1018
903,1018
904,1018
905,1018
906,1018
907,1018
908,1018
909,1018
910,1018
911,1018
912,1018
913,1018
914,1018
915,1018
916,1018
917,1018
918,1018
919,1018
920,1018
921,1018
922,1018
923,1018
924,1018
925,1018
926,1018
927,1018
928,1018
929,1018
930,1018
931,1018
932,1018
933,1018
934,1018
935,1018
936,1018
937,1018
938,1018
939,1018
940,1018
941,1018
942,1018
943,1018
944,1018
945,1018
946,1018
947,1018
948,1018
949,1018
950,1018
951,1018
952,1018
953,1018
954,1018
955,1018
956,1018
957,1018
958,1018
959,1018
960,1018
961,1018
962,1018
963,1018
964,1018
965,1018
966,1018
967,1018
968,1018
969,1018
970,1018
971,1018
972,1018
973,1018
974,1018
975,1018
976,1018
977,1018
978,1018
979,1018
980,1018
981,1018
982,1018
983,1018
984,1018
985,1018
986,1018
987,1018
988,1018
989,1018
990,1018
991,1018
992,1018
993,1018
994,1018
995,1018
996,1018
997,1018
998,1018
999,1018
1000,1018
1001,1018
1002,1018
1003,1018
1004,1018
1005,1018
1006,1018
1007,1018
1008,1018
1009,1018
1010,1018
1011,1018
1012,1018
1013,1018
1014,1018
1015,1018
1016,1018
1017,1018
1018,1018
1019,1018
1020,1018
1021,1018
1022,1018
1023,1018
1024,1018
1025,1018
1026,1018
1027,1018
1028,1018
1029,1018
1030,1018
1031,1018
1032,1018
1033,1018
1034,1018
1035,1018
1036,1018
1037,1018
1038,1018
1039,1018
1040,1018
1041,1018
1042,1018
1043,1018
1044,1018
1045,1018
1046,1018
1047,1018
1048,1018
1049,1018
1050,1018
1051,1018
1052,1018
1053,1018
1054,1018
1055,1018
1056,1018
1057,1018
1058,1018
1059,1018
1060,1018
1061,1018
1062,1018
1063,1018
1064,1018
1065,1018
1066,1018
1067,1018
1068,1018
1069,1018
1070,1018
1071,1018
1072,1018
1073,1018
1074,1018
1075,1018
1076,1018
1077,1018
1078,1018
1079,1018
1080,1018
1081,1018
1082,1018
1083,1018
1084,1018
1085,1018
1086,1018
1087,1018
1088,1018
1089,1018
1090,1018
1091,1018
1092,1018
1093,1018
1094,1018
1095,1018
1096,1018
1097,1018
1098,1018
1099,1018
1100,1018
1101,1018
1102,1018
1103,1018
1104,1018
1105,1018
1106,1018
1107,1018
1108,1018
1109,1018
1110,1018
1111,1018
1112,1018
1113,1018
1114,1018
1115,1018
1116,1018
1117,1018
1118,1018
1119,1018
1120,1018
1121,1018
1122,1018
1123,1018
1124,1018
1125,1018
1126,1018
1127,1018
1128,1018
1129,1018
1130,1018
1131,1018
1132,1018
1133,1018
1134,1018
1135,1018
1136,1018
1137,1018
1138,1018
1139,1018
1140,1018
1141,1018
1142,1018
1143,1018
1144,1018
1145,1018
1146,1018
1147,1018
1148,1018
1149,1018
1150,1018
1151,1018
1152,1018
1153,1018
1154,1018
1155,1018
1156,1018
1157,1018
1158,1018
1159,1018
1160,1018
1161,1018
1162,1018
1163,1018
1164,1018
1165,1018
1166,1018
1167,1018
1168,1018
1169,1018
1170,1018
1171,1018
1172,1018
1173,1018
1174,1018
1175,1018
1176,1018
1177,1018
1178,1018
1179,1018
1180,1018
1181,1018
1182,1018
1183,1018
1184,1018
1185,1018
1186,1018
1187,1018
1188,1018
1189,1018
1190,1018
1191,1018
1192,1018
1193,1018
1194,1018
1195,1018
1196,1018
1197,1018
1198,1018
1199,1018
1200,1018
1201,1018
1202,1018
1203,1018
1204,1018
1205,1018
1206,1018
1207,1018
1208,1018
1209,1018
1210,1018
1211,1018
1212,1018
1213,1018
1214,1018
1215,1018
1216,1018
1217,1017
1218,1018
1219,1018
1220,1018
1221,1018
1222,1018
1223,1018
1224,1018
1225,1018
1226,1018
1227,1018
1228,1018
1229,1018
1230,1018
1231,1018
1232,1018
1233,1018
1234,1018
1235,1018
1236,1018
1237,1018
1238,1018
1239,1018
1240,1018
1241,1018
1242,1018
1243,1018
1244,1018
1245,1018
1246,1018
1247,1018
1248,1018
1249,1018
1250,1018
1251,1018
1252,1018
1253,1018
1254,1018
1255,1018
1256,1018
1257,1018
1258,1018
1259,1018
1260,1018
1261,1018
1262,1018
1263,1018
1264,1018
1265,1018
1266,1018
1267,1017
1268,1018
1269,1018
1270,1018
1271,1018
1272,1017
1273,1018
1274,1018
1275,1018
1276,1018
1277,1017
1278,1018
1279,968
1280,950
1281,962
1282,985
1283,998
1284,995
1285,975
1286,972
1287,985
1288,992
1289,1002
1290,1017
1291,1018
1292,1017
1293,1018
1294,1018
1295,1018
1296,1018
1297,1018
1298,1018
1299,1018
1300,1018
1301,1018
1302,1017
1303,1018
1304,1017
1305,1018
1306,1017
1307,1017
1308,995
1309,993
1310,979
1311,973
1312,975
1313,991
1314,968
1315,949
1316,955
1317,971
1318,985
1319,984
1320,970
1321,974
1322,982
1323,982
1324,965
1325,967
1326,974
1327,979
1328,986
1329,962
1330,925
1331,891
1332,861
1333,857
1334,845
1335,854
1336,863
1337,864
1338,869
1339,870
1340,870
1341,876
1342,876
1343,872
1344,886
1345,894
1346,904
1347,918
1348,921
1349,923
1350,918
1351,915
1352,915
1353,899
1354,878
1355,868
1356,884
1357,877
1358,878
1359,878
1360,865
1361,860
1362,865
1363,864
1364,856
1365,837
1366,841
1367,856
1368,861
1369,846
1370,835
1371,840
1372,854
1373,864
1374,873
1375,866
1376,858
1377,848
1378,833
1379,831
1380,835
1381,856
1382,870
1383,865
1384,854
1385,843
1386,856
1387,854
1388,846
1389,833
1390,780
1391,760
1392,759
1393,764
1394,771
1395,783
1396,799
1397,800
1398,808
1399,824
1400,832
1401,845
1402,856
1403,865
1404,863
1405,852
1406,844
1407,834
1408,830
1409,823
1410,814
1411,807
1412,809
1413,803
1414,786
1415,752
1416,734
1417,742
1418,754
1419,768
1420,775
1421,787
1422,794
1423,798
1424,793
1425,784
1426,791
1427,801
1428,803
1429,793
1430,760
1431,733
1432,716
1433,704
1434,688
1435,672
1436,676
1437,695
1438,710
1439,716
1440,701
1441,690
1442,687
1443,700
1444,703
1445,706
1446,706
1447,713
1448,720
1449,718
1450,706
1451,709
1452,716
1453,725
1454,720
1455,717
1456,721
1457,726
1458,725
1459,724
1460,699
1461,694
1462,693
1463,696
1464,697
1465,708
1466,725
1467,744
1468,754
1469,748
1470,731
1471,734
1472,748
1473,751
1474,747
1475,748
1476,760
1477,771
1478,785
1479,788
1480,779
1481,771
1482,762
1483,748
1484,732
1485,709
1486,701
1487,698
1488,698
1489,700
1490,698
1491,702
1492,713
1493,712
1494,702
1495,686
1496,689
1497,697
1498,694
1499,695
1500,712
1501,731
1502,730
1503,728
1504,729
1505,722
1506,726
1507,730
1508,724
1509,733
1510,737
1511,749
1512,747
1513,738
1514,740
1515,739
1516,752
1517,762
1518,760
1519,752
1520,733
1521,716
1522,712
1523,711
1524,720
1525,702
1526,707
1527,716
1528,718
1529,712
1530,693
1531,693
1532,688
1533,669
1534,649
1535,629
1536,633
1537,649
1538,656
1539,655
1540,640
1541,647
1542,667
1543,681
1544,688
1545,679
1546,678
1547,695
1548,700
1549,704
1550,700
1551,711
1552,721
1553,730
1554,726
1555,715
1556,716
1557,724
1558,719
1559,700
1560,682
1561,688
1562,694
1563,701
1564,676
1565,649
1566,628
1567,612
1568,614
1569,623
1570,625
1571,650
1572,681
1573,710
1574,723
1575,716
1576,706
1577,707
1578,699
1579,684
1580,668
1581,668
1582,664
1583,653
1584,636
1585,616
1586,616
1587,625
1588,633
1589,627
1590,626
1591,623
1592,618
1593,609
1594,599
1595,590
1596,596
1597,612
1598,617
1599,630
1600,625
1601,616
1602,609
1603,590
1604,563
1605,550
1606,561
1607,570
1608,574
1609,583
1610,593
1611,607
1612,619
1613,623
1614,606
1615,585
1616,590
1617,599
1618,602
1619,601
1620,596
1621,605
1622,613
1623,600
1624,598
1625,582
1626,580
1627,581
1628,579
1629,570
1630,555
1631,536
1632,528
1633,539
1634,544
1635,546
1636,561
1637,576
1638,589
1639,600
1640,614
1641,633
1642,650
1643,663
1644,670
1645,669
1646,672
1647,668
1648,659
1649,648
1650,636
1651,638
1652,641
1653,639
1654,638
1655,631
1656,633
1657,634
1658,637
1659,636
1660,615
1661,600
1662,591
1663,595
1664,600
1665,602
1666,604
1667,612
1668,620
1669,621
1670,632
1671,649
1672,659
1673,651
1674,648
1675,649
1676,659
1677,657
1678,651
1679,657
1680,636
1681,632
1682,622
1683,609
1684,588
1685,574
1686,557
1687,537
1688,531
1689,523
1690,529
1691,551
1692,566
1693,575
1694,575
1695,568
1696,573
1697,586
1698,583
1699,579
1700,568
1701,565
1702,560
1703,554
1704,554
1705,574
1706,593
1707,606
1708,614
1709,610
1710,616
1711,629
1712,642
1713,636
1714,627
1715,620
1716,625
1717,632
1718,636
1719,639
1720,623
1721,594
1722,572
1723,566
1724,575
1725,588
1726,598
1727,623
1728,652
1729,664
1730,664
1731,668
1732,668
1733,668
1734,664
1735,673
1736,700
1737,724
1738,738
1739,734
1740,706
1741,674
1742,646
1743,619
1744,590
1745,553
1746,543
1747,539
1748,526
1749,527
1750,544
1751,574
1752,614
1753,627
1754,626
1755,608
1756,587
1757,579
1758,575
1759,579
1760,579
1761,588
1762,606
1763,594
1764,590
1765,579
1766,556
1767,530
1768,517
1769,502
1770,483
1771,485
1772,496
1773,517
1774,526
1775,524
1776,527
1777,533
1778,536
1779,538
1780,526
1781,526
1782,539
1783,551
1784,534
1785,528
1786,525
1787,522
1788,524
1789,523
1790,516
1791,514
1792,500
1793,485
1794,477
1795,476
1796,483
1797,499
1798,527
1799,532
1800,548
1801,573
1802,598
1803,604
1804,577
1805,546
1806,526
1807,508
1808,497
1809,495
1810,495
1811,501
1812,496
1813,485
1814,497
1815,510
1816,533
1817,572
1818,619
1819,633
1820,606
1821,582
1822,573
1823,575
1824,581
1825,568
1826,562
1827,553
1828,554
1829,561
1830,573
1831,582
1832,574
1833,552
1834,525
1835,514
1836,529
1837,548
1838,551
1839,547
1840,540
1841,532
1842,530
1843,536
1844,553
1845,564
1846,575
1847,579
1848,575
1849,570
1850,578
1851,593
1852,591
1853,577
1854,573
1855,584
1856,610
1857,628
1858,620
1859,609
1860,593
1861,588
1862,594
1863,595
1864,588
1865,580
1866,589
1867,598
1868,598
1869,588
1870,573
1871,577
1872,596
1873,609
1874,606
1875,587
1876,588
1877,591
1878,597
1879,619
1880,629
1881,641
1882,636
1883,635
1884,640
1885,640
1886,639
1887,645
1888,644
1889,651
1890,652
1891,657
1892,655
1893,645
1894,619
1895,597
1896,595
1897,593
1898,588
1899,577
1900,562
1901,567
1902,582
1903,598
1904,599
1905,585
1906,587
1907,588
1908,576
1909,556
1910,534
1911,530
1912,536
1913,549
1914,558
1915,560
1916,562
1917,564
1918,576
1919,563
1920,542
1921,533
1922,534
1923,548
1924,535
1925,525
1926,527
1927,537
1928,547
1929,536
1930,513
1931,514
1932,533
1933,546
1934,567
1935,561
1936,560
1937,568
1938,572
1939,577
1940,582
1941,608
1942,643
1943,663
1944,667
1945,662
1946,669
1947,681
1948,684
1949,679
1950,675
1951,679
1952,676
1953,670
1954,653
1955,626
1956,619
1957,621
1958,619
1959,617
1960,620
1961,634
1962,647
1963,670
1964,660
1965,647
1966,648
1967,647
1968,630
1969,623
1970,629
1971,644
1972,643
1973,638
1974,615
1975,586
1976,568
1977,565
1978,551
1979,521
1980,498
1981,501
1982,519
1983,536
1984,539
1985,538
1986,554
1987,574
1988,575
1989,562
1990,540
1991,537
1992,547
1993,556
1994,544
1995,522
1996,511
1997,503
1998,496
1999,496
