timestamp,signal
0,500
1,511
2,519
3,539
4,555
5,563
6,574
7,589
8,609
9,614
10,612
11,610
12,608
13,600
14,579
15,561
16,538
17,527
18,532
19,536
20,539
21,537
22,522
23,490
24,470
25,457
26,453
27,466
28,456
29,456
30,462
31,460
32,448
33,428
34,399
35,395
36,408
37,433
38,460
39,478
40,483
41,496
42,509
43,505
44,496
45,497
46,493
47,495
48,500
49,495
50,495
51,508
52,526
53,537
54,551
55,531
56,523
57,521
58,521
59,515
60,519
61,512
62,516
63,516
64,534
65,549
66,551
67,536
68,539
69,549
70,567
71,577
72,591
73,614
74,614
75,591
76,572
77,558
78,556
79,552
80,550
81,550
82,536
83,525
84,526
85,539
86,538
87,520
88,508
89,498
90,498
91,490
92,486
93,493
94,480
95,472
96,474
97,483
98,485
99,496
100,508
101,515
102,526
103,549
104,567
105,572
106,568
107,565
108,578
109,575
110,555
111,535
112,515
113,519
114,523
115,515
116,506
117,498
118,512
119,526
120,535
121,536
122,541
123,564
124,572
125,561
126,564
127,573
128,587
129,586
130,575
131,571
132,577
133,545
134,529
135,514
136,496
137,478
138,461
139,448
140,439
141,436
142,431
143,429
144,427
145,427
146,436
147,464
148,475
149,476
150,491
151,498
152,495
153,474
154,465
155,472
156,482
157,489
158,478
159,473
160,467
161,459
162,444
163,433
164,430
165,435
166,448
167,469
168,483
169,493
170,501
171,506
172,507
173,514
174,524
175,540
176,553
177,555
178,548
179,530
180,505
181,485
182,471
183,457
184,447
185,444
186,461
187,476
188,487
189,492
190,492
191,508
192,529
193,563
194,590
195,591
196,584
197,572
198,575
199,579
200,584
201,596
202,592
203,585
204,583
205,575
206,558
207,527
208,515
209,511
210,512
211,513
212,524
213,523
214,528
215,543
216,557
217,558
218,535
219,508
220,492
221,479
222,460
223,461
224,457
225,444
226,433
227,433
228,419
229,417
230,430
231,453
232,471
233,476
234,483
235,496
236,507
237,516
238,528
239,540
240,550
241,551
242,559
243,567
244,586
245,572
246,558
247,546
248,548
249,542
250,531
251,521
252,510
253,493
254,483
255,467
256,452
257,446
258,448
259,459
260,472
261,486
262,491
263,494
264,495
265,508
266,521
267,527
268,518
269,512
270,512
271,515
272,518
273,514
274,519
275,532
276,553
277,569
278,569
279,555
280,537
281,522
282,516
283,514
284,508
285,493
286,501
287,515
288,502
289,506
290,524
291,541
292,552
293,555
294,551
295,530
296,533
297,547
298,571
299,582
300,596
301,605
302,577
303,575
304,556
305,548
306,557
307,574
308,575
309,556
310,536
311,523
312,515
313,500
314,490
315,496
316,508
317,527
318,531
319,532
320,543
321,556
322,562
323,546
324,527
325,519
326,502
327,476
328,455
329,446
330,436
331,432
332,430
333,427
334,441
335,469
336,492
337,506
338,495
339,487
340,486
341,486
342,489
343,491
344,499
345,512
346,526
347,547
348,568
349,566
350,561
351,566
352,567
353,561
354,542
355,518
356,502
357,482
358,457
359,442
360,438
361,455
362,463
363,475
364,481
365,493
366,504
367,518
368,515
369,517
370,521
371,523
372,525
373,536
374,544
375,542
376,534
377,535
378,544
379,544
380,539
381,543
382,530
383,522
384,518
385,515
386,516
387,512
388,508
389,498
390,486
391,475
392,462
393,456
394,443
395,432
396,437
397,448
398,444
399,433
400,445
401,455
402,477
403,487
404,489
405,495
406,506
407,514
408,504
409,503
410,507
411,512
412,510
413,506
414,503
415,505
416,512
417,530
418,537
419,540
420,533
421,531
422,536
423,524
424,529
425,538
426,531
427,512
428,483
429,478
430,479
431,477
432,476
433,476
434,477
435,475
436,474
437,484
438,506
439,519
440,523
441,527
442,512
443,483
444,462
445,459
446,467
447,465
448,460
449,464
450,474
451,491
452,504
453,507
454,513
455,522
456,534
457,529
458,516
459,502
460,494
461,496
462,482
463,486
464,474
465,472
466,472
467,476
468,488
469,489
470,490
471,489
472,489
473,498
474,499
475,492
476,480
477,475
478,471
479,476
480,476
481,478
482,483
483,499
484,510
485,512
486,515
487,505
488,505
489,514
490,533
491,538
492,535
493,521
494,510
495,512
496,520
497,529
498,530
499,527
500,531
501,531
502,518
503,506
504,481
505,464
506,461
507,477
508,499
509,525
510,551
511,565
512,567
513,574
514,571
515,549
516,526
517,505
518,500
519,499
520,503
521,514
522,531
523,539
524,541
525,552
526,552
527,551
528,550
529,552
530,548
531,543
532,527
533,533
534,540
535,545
536,552
537,556
538,561
539,551
540,546
541,543
542,540
543,545
544,548
545,550
546,567
547,579
548,569
549,561
550,555
551,561
552,566
553,554
554,539
555,525
556,512
557,504
558,484
559,471
560,475
561,491
562,506
563,511
564,522
565,514
566,513
567,521
568,532
569,535
570,531
571,537
572,542
573,539
574,508
575,472
576,452
577,448
578,464
579,490
580,499
581,498
582,502
583,514
584,522
585,524
586,521
587,508
588,507
589,513
590,526
591,526
592,524
593,535
594,528
595,514
596,492
597,478
598,458
599,449
600,464
601,465
602,477
603,474
604,478
605,483
606,477
607,477
608,487
609,494
610,500
611,493
612,488
613,496
614,500
615,510
616,521
617,529
618,520
619,499
620,463
621,428
622,418
623,413
624,415
625,417
626,425
627,431
628,430
629,435
630,450
631,476
632,492
633,503
634,503
635,493
636,489
637,492
638,503
639,499
640,507
641,519
642,527
643,511
644,493
645,478
646,456
647,441
648,419
649,414
650,414
651,402
652,400
653,396
654,416
655,456
656,492
657,506
658,514
659,519
660,508
661,498
662,501
663,500
664,494
665,492
666,499
667,505
668,501
669,496
670,494
671,501
672,515
673,517
674,516
675,508
676,496
677,494
678,485
679,477
680,478
681,488
682,502
683,521
684,538
685,547
686,555
687,558
688,571
689,584
690,596
691,604
692,611
693,625
694,621
695,613
696,605
697,600
698,594
699,581
700,563
701,551
702,533
703,521
704,504
705,486
706,475
707,465
708,461
709,459
710,454
711,459
712,475
713,487
714,490
715,496
716,502
717,492
718,481
719,473
720,462
721,462
722,472
723,470
724,466
725,478
726,487
727,477
728,460
729,453
730,460
731,470
732,480
733,486
734,493
735,496
736,493
737,483
738,486
739,490
740,495
741,505
742,507
743,501
744,494
745,497
746,511
747,527
748,551
749,565
750,571
751,580
752,589
753,584
754,576
755,572
756,565
757,563
758,560
759,543
760,536
761,553
762,567
763,593
764,604
765,592
766,583
767,581
768,582
769,574
770,563
771,559
772,547
773,537
774,528
775,531
776,544
777,538
778,533
779,536
780,526
781,508
782,488
783,472
784,456
785,466
786,455
787,458
788,449
789,443
790,448
791,457
792,469
793,478
794,466
795,467
796,486
797,508
798,508
799,494
800,492
801,492
802,491
803,502
804,519
805,521
806,516
807,508
808,496
809,489
810,490
811,497
812,481
813,453
814,432
815,431
816,445
817,470
818,477
819,469
820,471
821,480
822,508
823,520
824,521
825,528
826,540
827,541
828,528
829,515
830,513
831,520
832,531
833,526
834,524
835,526
836,513
837,513
838,508
839,487
840,472
841,458
842,454
843,454
844,459
845,477
846,488
847,489
848,487
849,483
850,484
851,475
852,481
853,476
854,470
855,480
856,496
857,508
858,508
859,504
860,500
861,502
862,506
863,500
864,488
865,473
866,450
867,432
868,424
869,409
870,418
871,442
872,466
873,483
874,496
875,514
876,519
877,519
878,495
879,472
880,469
881,468
882,472
883,475
884,481
885,484
886,482
887,488
888,492
889,504
890,504
891,491
892,492
893,478
894,467
895,472
896,484
897,510
898,505
899,504
900,498
901,495
902,495
903,504
904,507
905,497
906,484
907,479
908,484
909,487
910,471
911,451
912,452
913,455
914,460
915,480
916,500
917,515
918,513
919,519
920,531
921,531
922,512
923,492
924,473
925,459
926,455
927,451
928,443
929,455
930,473
931,477
932,477
933,468
934,464
935,465
936,474
937,478
938,480
939,486
940,496
941,490
942,478
943,473
944,479
945,478
946,463
947,457
948,448
949,462
950,484
951,499
952,514
953,513
954,519
955,521
956,531
957,546
958,540
959,545
960,551
961,557
962,553
963,544
964,542
965,551
966,563
967,569
968,554
969,552
970,563
971,562
972,545
973,540
974,550
975,563
976,582
977,603
978,610
979,598
980,578
981,555
982,541
983,533
984,534
985,550
986,563
987,572
988,566
989,540
990,518
991,510
992,524
993,526
994,515
995,505
996,487
997,479
998,491
999,511
1000,525
1001,543
1002,568
1003,597
1004,622
1005,627
1006,619
1007,609
1008,609
1009,600
1010,584
1011,568
1012,550
1013,538
1014,536
1015,538
1016,542
1017,523
1018,515
1019,510
1020,513
1021,522
1022,524
1023,527
1024,532
1025,543
1026,532
1027,541
1028,536
1029,534
1030,534
1031,540
1032,549
1033,548
1034,543
1035,540
1036,545
1037,553
1038,552
1039,540
1040,512
1041,492
1042,472
1043,452
1044,435
1045,424
1046,421
1047,434
1048,448
1049,451
1050,463
1051,488
1052,497
1053,518
1054,537
1055,548
1056,556
1057,558
1058,569
1059,582
1060,595
1061,588
1062,579
1063,566
1064,555
1065,560
1066,559
1067,551
1068,534
1069,525
1070,514
1071,501
1072,499
1073,505
1074,491
1075,484
1076,487
1077,505
1078,527
1079,532
1080,529
1081,518
1082,512
1083,505
1084,499
1085,493
1086,504
1087,528
1088,536
1089,540
1090,544
1091,559
1092,564
1093,544
1094,523
1095,515
1096,521
1097,524
1098,504
1099,504
1100,515
1101,537
1102,532
1103,522
1104,495
1105,482
1106,488
1107,489
1108,492
1109,487
1110,489
1111,499
1112,504
1113,503
1114,486
1115,474
1116,479
1117,489
1118,497
1119,510
1120,522
1121,538
1122,537
1123,515
1124,502
1125,499
1126,499
1127,504
1128,498
1129,492
1130,489
1131,498
1132,498
1133,489
1134,474
1135,470
1136,464
1137,464
1138,466
1139,468
1140,477
1141,501
1142,497
1143,496
1144,492
1145,499
1146,505
1147,508
1148,495
1149,495
1150,499
1151,501
1152,503
1153,503
1154,504
1155,514
1156,518
1157,505
1158,498
1159,497
1160,499
1161,507
1162,528
1163,549
1164,558
1165,552
1166,536
1167,510
1168,502
1169,504
1170,504
1171,524
1172,550
1173,556
1174,541
1175,536
1176,539
1177,550
1178,548
1179,543
1180,544
1181,545
1182,540
1183,525
1184,510
1185,512
1186,529
1187,540
1188,535
1189,538
1190,534
1191,515
1192,499
1193,488
1194,494
1195,493
1196,494
1197,509
1198,506
1199,513
1200,524
1201,547
1202,582
1203,614
1204,614
1205,605
1206,600
1207,586
1208,564
1209,547
1210,547
1211,563
1212,574
1213,562
1214,544
1215,533
1216,538
1217,541
1218,537
1219,529
1220,520
1221,509
1222,501
1223,495
1224,497
1225,499
1226,512
1227,524
1228,522
1229,513
1230,513
1231,523
1232,533
1233,542
1234,529
1235,531
1236,530
1237,527
1238,527
1239,530
1240,532
1241,535
1242,546
1243,557
1244,563
1245,577
1246,573
1247,564
1248,524
1249,487
1250,453
1251,449
1252,453
1253,440
1254,438
1255,441
1256,443
1257,456
1258,462
1259,463
1260,455
1261,459
1262,469
1263,454
1264,461
1265,475
1266,496
1267,520
1268,538
1269,536
1270,526
1271,533
1272,540
1273,558
1274,565
1275,547
1276,535
1277,535
1278,540
1279,521
1280,495
1281,482
1282,486
1283,491
1284,493
1285,493
1286,509
1287,496
1288,487
1289,489
1290,499
1291,501
1292,491
1293,482
1294,477
1295,482
1296,483
1297,477
1298,465
1299,463
1300,465
1301,482
1302,491
1303,494
1304,497
1305,505
1306,510
1307,517
1308,503
1309,502
1310,516
1311,524
1312,525
1313,505
1314,487
1315,484
1316,492
1317,507
1318,508
1319,509
1320,508
1321,514
1322,506
1323,507
1324,508
1325,519
1326,490
1327,483
1328,488
1329,487
1330,490
1331,492
1332,498
1333,498
1334,496
1335,505
1336,516
1337,522
1338,507
1339,496
1340,483
1341,477
1342,482
1343,487
1344,486
1345,491
1346,498
1347,498
1348,499
1349,498
1350,507
1351,510
1352,509
1353,512
1354,516
1355,513
1356,507
1357,512
1358,503
1359,490
1360,488
1361,492
1362,492
1363,472
1364,458
1365,450
1366,442
1367,425
1368,429
1369,449
1370,466
1371,478
1372,492
1373,511
1374,517
1375,524
1376,542
1377,543
1378,523
1379,501
1380,498
1381,497
1382,492
1383,481
1384,478
1385,483
1386,499
1387,512
1388,520
1389,514
1390,523
1391,526
1392,530
1393,515
1394,499
1395,492
1396,503
1397,521
1398,550
1399,558
1400,562
1401,566
1402,557
1403,559
1404,562
1405,555
1406,544
1407,546
1408,551
1409,560
1410,567
1411,563
1412,556
1413,547
1414,548
1415,556
1416,568
1417,554
1418,539
1419,536
1420,551
1421,563
1422,574
1423,582
1424,568
1425,553
1426,540
1427,541
1428,552
1429,564
1430,568
1431,555
1432,547
1433,516
1434,505
1435,505
1436,502
1437,509
1438,529
1439,547
1440,551
1441,546
1442,535
1443,548
1444,553
1445,542
1446,528
1447,515
1448,496
1449,496
1450,513
1451,532
1452,538
1453,527
1454,515
1455,516
1456,500
1457,499
1458,490
1459,482
1460,490
1461,500
1462,502
1463,505
1464,507
1465,516
1466,506
1467,499
1468,504
1469,515
1470,513
1471,509
1472,508
1473,518
1474,523
1475,531
1476,535
1477,527
1478,504
1479,489
1480,487
1481,494
1482,499
1483,507
1484,496
1485,492
1486,490
1487,494
1488,495
1489,496
1490,495
1491,481
1492,463
1493,451
1494,432
1495,419
1496,408
1497,403
1498,391
1499,389
1500,390
1501,405
1502,421
1503,431
1504,433
1505,427
1506,433
1507,441
1508,449
1509,465
1510,476
1511,481
1512,475
1513,482
1514,490
1515,486
1516,483
1517,487
1518,497
1519,499
1520,492
1521,486
1522,486
1523,496
1524,513
1525,532
1526,522
1527,504
1528,478
1529,453
1530,457
1531,476
1532,504
1533,505
1534,496
1535,490
1536,496
1537,510
1538,514
1539,497
1540,484
1541,473
1542,482
1543,479
1544,469
1545,484
1546,502
1547,502
1548,496
1549,493
1550,499
1551,518
1552,536
1553,534
1554,517
1555,504
1556,501
1557,502
1558,492
1559,476
1560,475
1561,487
1562,496
1563,488
1564,481
1565,470
1566,461
1567,466
1568,466
1569,478
1570,483
1571,476
1572,484
1573,494
1574,511
1575,511
1576,500
1577,503
1578,505
1579,513
1580,524
1581,546
1582,566
1583,559
1584,550
1585,535
1586,519
1587,502
1588,506
1589,483
1590,482
1591,476
1592,471
1593,466
1594,459
1595,455
1596,460
1597,455
1598,459
1599,465
1600,470
1601,479
1602,488
1603,492
1604,493
1605,503
1606,524
1607,539
1608,546
1609,551
1610,549
1611,542
1612,544
1613,571
1614,581
1615,574
1616,558
1617,545
1618,543
1619,549
1620,545
1621,537
1622,537
1623,549
1624,564
1625,575
1626,562
1627,559
1628,572
1629,567
1630,548
1631,532
1632,523
1633,520
1634,521
1635,530
1636,536
1637,544
1638,549
1639,539
1640,536
1641,536
1642,537
1643,531
1644,530
1645,525
1646,523
1647,523
1648,511
1649,492
1650,480
1651,484
1652,492
1653,491
1654,491
1655,500
1656,512
1657,518
1658,499
1659,492
1660,480
1661,487
1662,493
1663,485
1664,476
1665,463
1666,467
1667,481
1668,501
1669,492
1670,499
1671,501
1672,507
1673,518
1674,528
1675,537
1676,548
1677,552
1678,538
1679,511
1680,491
1681,489
1682,493
1683,498
1684,504
1685,504
1686,500
1687,496
1688,488
1689,480
1690,478
1691,486
1692,489
1693,479
1694,475
1695,483
1696,486
1697,483
1698,479
1699,472
1700,471
1701,475
1702,471
1703,472
1704,484
1705,494
1706,506
1707,520
1708,524
1709,524
1710,510
1711,493
1712,478
1713,479
1714,479
1715,472
1716,467
1717,470
1718,485
1719,476
1720,487
1721,507
1722,521
1723,523
1724,514
1725,511
1726,515
1727,515
1728,507
1729,502
1730,497
1731,508
1732,532
1733,557
1734,574
1735,588
1736,610
1737,617
1738,600
1739,571
1740,554
1741,547
1742,549
1743,559
1744,540
1745,519
1746,510
1747,512
1748,519
1749,532
1750,542
1751,538
1752,524
1753,516
1754,513
1755,511
1756,511
1757,521
1758,514
1759,514
1760,509
1761,504
1762,474
1763,447
1764,438
1765,443
1766,465
1767,473
1768,461
1769,454
1770,457
1771,470
1772,489
1773,511
1774,526
1775,536
1776,536
1777,529
1778,515
1779,512
1780,518
1781,525
1782,523
1783,517
1784,505
1785,511
1786,527
1787,528
1788,531
1789,521
1790,505
1791,488
1792,489
1793,496
1794,510
1795,523
1796,535
1797,529
1798,537
1799,545
1800,542
1801,544
1802,555
1803,560
1804,557
1805,554
1806,554
1807,543
1808,541
1809,541
1810,542
1811,545
1812,536
1813,515
1814,480
1815,469
1816,455
1817,454
1818,458
1819,464
1820,469
1821,475
1822,472
1823,466
1824,464
1825,466
1826,481
1827,489
1828,485
1829,479
1830,480
1831,493
1832,514
1833,530
1834,523
1835,531
1836,520
1837,524
1838,521
1839,504
1840,500
1841,502
1842,517
1843,515
1844,507
1845,509
1846,504
1847,508
1848,517
1849,518
1850,507
1851,505
1852,516
1853,539
1854,548
1855,559
1856,577
1857,583
1858,577
1859,579
1860,582
1861,580
1862,588
1863,596
1864,603
1865,594
1866,588
1867,587
1868,588
1869,570
1870,553
1871,531
1872,524
1873,504
1874,478
1875,475
1876,480
1877,487
1878,472
1879,457
1880,450
1881,451
1882,460
1883,490
1884,521
1885,540
1886,550
1887,546
1888,532
1889,508
1890,496
1891,505
1892,515
1893,516
1894,516
1895,515
1896,510
1897,498
1898,487
1899,473
1900,468
1901,477
1902,471
1903,462
1904,465
1905,483
1906,501
1907,512
1908,519
1909,520
1910,528
1911,521
1912,534
1913,546
1914,553
1915,555
1916,557
1917,553
1918,555
1919,556
1920,556
1921,553
1922,562
1923,561
1924,556
1925,548
1926,541
1927,536
1928,512
1929,499
1930,513
1931,531
1932,542
1933,550
1934,555
1935,552
1936,555
1937,550
1938,548
1939,547
1940,550
1941,546
1942,536
1943,519
1944,504
1945,502
1946,509
1947,519
1948,523
1949,512
1950,502
1951,502
1952,515
1953,522
1954,523
1955,516
1956,519
1957,522
1958,526
1959,526
1960,525
1961,518
1962,512
1963,520
1964,527
1965,530
1966,541
1967,544
1968,541
1969,537
1970,529
1971,512
1972,508
1973,495
1974,487
1975,484
1976,481
1977,489
1978,487
1979,467
1980,449
1981,445
1982,446
1983,443
1984,443
1985,449
1986,457
1987,452
1988,443
1989,436
1990,435
1991,446
1992,449
1993,449
1994,452
1995,461
1996,483
1997,504
1998,502
1999,488
