timestamp,signal
0,528
1,523
2,527
3,523
4,537
5,540
6,545
7,545
8,541
9,536
10,531
11,522
12,521
13,524
14,536
15,542
16,541
17,540
18,532
19,535
20,530
21,526
22,528
23,511
24,502
25,503
26,518
27,502
28,495
29,483
30,466
31,464
32,474
33,486
34,492
35,494
36,508
37,530
38,545
39,545
40,542
41,532
42,515
43,493
44,481
45,468
46,460
47,450
48,454
49,478
50,495
51,503
52,506
53,502
54,504
55,507
56,513
57,521
58,520
59,516
60,504
61,499
62,482
63,478
64,487
65,488
66,494
67,519
68,545
69,567
70,583
71,598
72,611
73,621
74,613
75,589
76,571
77,553
78,558
79,561
80,558
81,554
82,553
83,568
84,575
85,574
86,575
87,577
88,562
89,553
90,544
91,536
92,536
93,538
94,535
95,519
96,516
97,516
98,511
99,524
100,523
101,522
102,511
103,490
104,480
105,478
106,492
107,508
108,523
109,535
110,538
111,543
112,546
113,526
114,514
115,511
116,510
117,506
118,495
119,489
120,484
121,496
122,491
123,478
124,466
125,461
126,458
127,461
128,463
129,469
130,470
131,486
132,508
133,540
134,559
135,556
136,557
137,558
138,552
139,562
140,575
141,577
142,581
143,572
144,562
145,558
146,563
147,575
148,565
149,543
150,523
151,519
152,519
153,509
154,504
155,492
156,487
157,479
158,484
159,493
160,500
161,502
162,500
163,515
164,530
165,526
166,514
167,516
168,527
169,524
170,522
171,524
172,523
173,524
174,522
175,510
176,505
177,477
178,451
179,451
180,446
181,438
182,451
183,448
184,446
185,445
186,451
187,470
188,486
189,503
190,504
191,504
192,512
193,521
194,531
195,530
196,532
197,536
198,537
199,535
200,520
201,505
202,506
203,504
204,521
205,519
206,518
207,512
208,509
209,492
210,466
211,464
212,460
213,471
214,490
215,497
216,483
217,467
218,472
219,478
220,498
221,503
222,507
223,519
224,528
225,533
226,540
227,555
228,572
229,571
230,563
231,540
232,511
233,499
234,494
235,487
236,496
237,518
238,530
239,534
240,528
241,534
242,537
243,543
244,547
245,552
246,569
247,583
248,591
249,571
250,538
251,511
252,494
253,477
254,476
255,467
256,457
257,457
258,451
259,446
260,453
261,467
262,472
263,484
264,496
265,511
266,531
267,544
268,530
269,529
270,532
271,545
272,563
273,575
274,577
275,579
276,575
277,567
278,557
279,547
280,539
281,536
282,527
283,524
284,533
285,535
286,536
287,533
288,543
289,544
290,528
291,518
292,513
293,514
294,516
295,526
296,539
297,526
298,513
299,499
300,493
301,496
302,504
303,515
304,527
305,520
306,510
307,514
308,521
309,524
310,519
311,521
312,522
313,523
314,521
315,506
316,497
317,503
318,517
319,509
320,492
321,476
322,466
323,461
324,467
325,457
326,449
327,450
328,464
329,484
330,501
331,505
332,514
333,532
334,543
335,541
336,532
337,528
338,538
339,542
340,527
341,515
342,516
343,539
344,552
345,555
346,560
347,559
348,544
349,518
350,481
351,465
352,450
353,436
354,427
355,412
356,405
357,400
358,400
359,414
360,416
361,419
362,435
363,446
364,456
365,449
366,455
367,448
368,445
369,454
370,447
371,438
372,441
373,453
374,474
375,502
376,529
377,529
378,508
379,502
380,504
381,510
382,516
383,505
384,496
385,502
386,520
387,527
388,537
389,525
390,515
391,525
392,536
393,543
394,536
395,521
396,511
397,503
398,523
399,537
400,528
401,529
402,539
403,527
404,507
405,492
406,482
407,472
408,461
409,456
410,451
411,445
412,445
413,446
414,457
415,458
416,463
417,454
418,443
419,443
420,443
421,456
422,462
423,463
424,468
425,483
426,509
427,528
428,530
429,523
430,505
431,492
432,496
433,498
434,502
435,507
436,516
437,521
438,505
439,491
440,485
441,494
442,506
443,514
444,506
445,494
446,496
447,494
448,496
449,498
450,499
451,512
452,521
453,530
454,552
455,566
456,560
457,554
458,549
459,534
460,519
461,530
462,519
463,517
464,519
465,520
466,535
467,552
468,575
469,577
470,556
471,542
472,538
473,550
474,551
475,550
476,558
477,565
478,568
479,565
480,571
481,574
482,558
483,539
484,521
485,495
486,484
487,482
488,479
489,480
490,489
491,503
492,516
493,508
494,488
495,466
496,458
497,466
498,476
499,485
500,490
501,497
502,502
503,494
504,484
505,462
506,448
507,441
508,442
509,456
510,468
511,494
512,530
513,563
514,581
515,569
516,558
517,550
518,543
519,542
520,531
521,521
522,517
523,505
524,488
525,464
526,457
527,446
528,438
529,454
530,469
531,483
532,501
533,495
534,493
535,488
536,496
537,514
538,518
539,515
540,509
541,519
542,535
543,551
544,563
545,564
546,557
547,556
548,543
549,527
550,518
551,512
552,516
553,518
554,519
555,503
556,491
557,482
558,470
559,452
560,444
561,452
562,471
563,462
564,463
565,463
566,479
567,487
568,467
569,466
570,476
571,492
572,499
573,487
574,482
575,476
576,478
577,496
578,494
579,511
580,517
581,523
582,529
583,519
584,514
585,500
586,480
587,474
588,475
589,480
590,484
591,502
592,518
593,525
594,533
595,532
596,524
597,511
598,504
599,506
600,500
601,484
602,475
603,476
604,486
605,487
606,499
607,499
608,487
609,482
610,488
611,510
612,516
613,515
614,515
615,515
616,528
617,535
618,535
619,544
620,540
621,538
622,536
623,523
624,523
625,538
626,557
627,571
628,566
629,572
630,555
631,548
632,552
633,560
634,565
635,555
636,552
637,548
638,538
639,534
640,526
641,531
642,533
643,526
644,528
645,514
646,516
647,519
648,514
649,500
650,477
651,468
652,466
653,467
654,488
655,504
656,510
657,507
658,489
659,473
660,460
661,454
662,450
663,446
664,446
665,439
666,434
667,433
668,431
669,434
670,445
671,476
672,508
673,528
674,546
675,560
676,550
677,548
678,541
679,539
680,539
681,545
682,547
683,531
684,519
685,501
686,488
687,486
688,481
689,481
690,489
691,492
692,499
693,497
694,496
695,483
696,484
697,504
698,497
699,499
700,508
701,500
702,505
703,510
704,510
705,505
706,510
707,526
708,528
709,520
710,517
711,497
712,500
713,493
714,484
715,482
716,500
717,519
718,529
719,532
720,524
721,508
722,494
723,494
724,512
725,521
726,539
727,538
728,534
729,545
730,549
731,547
732,552
733,559
734,560
735,562
736,577
737,595
738,566
739,540
740,527
741,530
742,523
743,504
744,491
745,484
746,488
747,493
748,492
749,490
750,483
751,480
752,480
753,487
754,508
755,527
756,552
757,575
758,574
759,572
760,578
761,578
762,573
763,556
764,535
765,522
766,527
767,518
768,498
769,486
770,488
771,497
772,516
773,516
774,512
775,493
776,487
777,498
778,505
779,510
780,498
781,501
782,514
783,516
784,523
785,539
786,519
787,510
788,500
789,506
790,506
791,515
792,504
793,503
794,501
795,490
796,496
797,502
798,492
799,497
800,500
801,502
802,510
803,511
804,519
805,519
806,503
807,490
808,475
809,468
810,475
811,503
812,533
813,548
814,550
815,544
816,540
817,541
818,556
819,565
820,562
821,557
822,552
823,557
824,553
825,546
826,541
827,533
828,526
829,528
830,521
831,530
832,542
833,540
834,542
835,536
836,524
837,514
838,501
839,480
840,450
841,435
842,444
843,457
844,468
845,473
846,473
847,466
848,467
849,471
850,460
851,459
852,466
853,464
854,460
855,439
856,433
857,443
858,470
859,490
860,485
861,483
862,487
863,501
864,527
865,517
866,521
867,510
868,476
869,464
870,455
871,460
872,454
873,454
874,442
875,440
876,445
877,452
878,481
879,510
880,545
881,573
882,581
883,594
884,598
885,585
886,561
887,545
888,532
889,523
890,504
891,499
892,511
893,515
894,529
895,553
896,567
897,564
898,563
899,562
900,560
901,563
902,565
903,561
904,559
905,548
906,542
907,524
908,511
909,508
910,494
911,480
912,475
913,496
914,522
915,548
916,561
917,560
918,553
919,547
920,536
921,514
922,491
923,487
924,504
925,522
926,524
927,537
928,556
929,561
930,557
931,556
932,548
933,540
934,536
935,534
936,532
937,531
938,530
939,523
940,506
941,494
942,489
943,485
944,489
945,495
946,507
947,519
948,525
949,536
950,566
951,571
952,563
953,534
954,500
955,477
956,472
957,468
958,467
959,470
960,472
961,475
962,479
963,483
964,483
965,477
966,483
967,487
968,480
969,469
970,462
971,467
972,487
973,508
974,524
975,524
976,524
977,524
978,525
979,519
980,508
981,505
982,505
983,518
984,534
985,542
986,537
987,525
988,526
989,525
990,516
991,507
992,499
993,510
994,523
995,536
996,553
997,563
998,533
999,520
1000,519
1001,527
1002,511
1003,495
1004,492
1005,487
1006,480
1007,484
1008,487
1009,485
1010,478
1011,472
1012,455
1013,440
1014,436
1015,435
1016,468
1017,475
1018,473
1019,466
1020,460
1021,463
1022,468
1023,470
1024,481
1025,491
1026,492
1027,494
1028,484
1029,487
1030,487
1031,491
1032,482
1033,473
1034,474
1035,481
1036,471
1037,477
1038,485
1039,493
1040,512
1041,539
1042,556
1043,567
1044,551
1045,531
1046,522
1047,515
1048,512
1049,512
1050,510
1051,514
1052,521
1053,531
1054,551
1055,569
1056,587
1057,584
1058,569
1059,547
1060,522
1061,525
1062,519
1063,519
1064,515
1065,504
1066,500
1067,495
1068,488
1069,472
1070,448
1071,431
1072,418
1073,403
1074,403
1075,417
1076,443
1077,471
1078,477
1079,473
1080,461
1081,449
1082,453
1083,449
1084,449
1085,456
1086,464
1087,463
1088,452
1089,463
1090,476
1091,494
1092,504
1093,501
1094,496
1095,497
1096,508
1097,511
1098,509
1099,512
1100,507
1101,501
1102,487
1103,499
1104,527
1105,541
1106,551
1107,561
1108,568
1109,557
1110,540
1111,545
1112,579
1113,580
1114,579
1115,579
1116,574
1117,547
1118,517
1119,504
1120,507
1121,524
1122,538
1123,547
1124,562
1125,595
1126,594
1127,593
1128,593
1129,596
1130,578
1131,574
1132,587
1133,583
1134,574
1135,551
1136,522
1137,493
1138,470
1139,460
1140,459
1141,468
1142,472
1143,468
1144,479
1145,498
1146,521
1147,516
1148,514
1149,502
1150,487
1151,464
1152,460
1153,469
1154,474
1155,472
1156,473
1157,480
1158,496
1159,517
1160,534
1161,553
1162,541
1163,521
1164,494
1165,469
1166,459
1167,458
1168,468
1169,498
1170,523
1171,541
1172,547
1173,539
1174,529
1175,505
1176,493
1177,490
1178,486
1179,495
1180,509
1181,522
1182,521
1183,515
1184,510
1185,507
1186,511
1187,517
1188,516
1189,517
1190,515
1191,522
1192,519
1193,523
1194,529
1195,526
1196,515
1197,508
1198,525
1199,548
1200,559
1201,562
1202,557
1203,533
1204,518
1205,483
1206,472
1207,459
1208,444
1209,446
1210,454
1211,455
1212,462
1213,473
1214,489
1215,502
1216,515
1217,521
1218,524
1219,524
1220,519
1221,530
1222,529
1223,518
1224,516
1225,515
1226,506
1227,498
1228,490
1229,487
1230,486
1231,487
1232,495
1233,478
1234,464
1235,476
1236,502
1237,525
1238,532
1239,538
1240,550
1241,562
1242,572
1243,567
1244,547
1245,504
1246,464
1247,432
1248,411
1249,401
1250,404
1251,422
1252,442
1253,462
1254,483
1255,496
1256,514
1257,527
1258,521
1259,526
1260,511
1261,496
1262,483
1263,478
1264,493
1265,501
1266,511
1267,520
1268,528
1269,527
1270,523
1271,530
1272,543
1273,542
1274,538
1275,542
1276,537
1277,534
1278,535
1279,540
1280,544
1281,555
1282,559
1283,571
1284,574
1285,565
1286,551
1287,530
1288,528
1289,525
1290,522
1291,515
1292,511
1293,506
1294,500
1295,508
1296,522
1297,531
1298,535
1299,540
1300,526
1301,515
1302,509
1303,489
1304,487
1305,496
1306,503
1307,511
1308,526
1309,537
1310,533
1311,528
1312,531
1313,529
1314,522
1315,512
1316,508
1317,499
1318,482
1319,469
1320,460
1321,468
1322,479
1323,495
1324,505
1325,489
1326,487
1327,492
1328,498
1329,515
1330,529
1331,542
1332,550
1333,558
1334,567
1335,566
1336,564
1337,562
1338,558
1339,555
1340,547
1341,534
1342,521
1343,523
1344,514
1345,487
1346,465
1347,448
1348,445
1349,448
1350,447
1351,452
1352,461
1353,470
1354,494
1355,525
1356,546
1357,554
1358,554
1359,549
1360,538
1361,534
1362,541
1363,540
1364,540
1365,527
1366,520
1367,518
1368,517
1369,523
1370,522
1371,521
1372,526
1373,529
1374,526
1375,504
1376,495
1377,496
1378,489
1379,497
1380,511
1381,525
1382,540
1383,536
1384,514
1385,503
1386,497
1387,502
1388,504
1389,521
1390,534
1391,521
1392,504
1393,495
1394,494
1395,487
1396,494
1397,511
1398,524
1399,536
1400,529
1401,513
1402,499
1403,493
1404,497
1405,499
1406,501
1407,509
1408,513
1409,512
1410,503
1411,501
1412,509
1413,515
1414,515
1415,505
1416,504
1417,503
1418,494
1419,504
1420,491
1421,483
1422,492
1423,506
1424,510
1425,508
1426,505
1427,504
1428,527
1429,540
1430,546
1431,551
1432,550
1433,562
1434,573
1435,566
1436,562
1437,562
1438,550
1439,534
1440,512
1441,510
1442,519
1443,537
1444,544
1445,532
1446,524
1447,514
1448,502
1449,502
1450,506
1451,505
1452,504
1453,515
1454,531
1455,539
1456,549
1457,550
1458,543
1459,534
1460,529
1461,532
1462,536
1463,540
1464,514
1465,486
1466,467
1467,470
1468,476
1469,482
1470,493
1471,507
1472,530
1473,543
1474,548
1475,530
1476,517
1477,509
1478,505
1479,510
1480,504
1481,505
1482,515
1483,513
1484,518
1485,516
1486,509
1487,515
1488,512
1489,507
1490,501
1491,504
1492,504
1493,488
1494,476
1495,467
1496,465
1497,456
1498,446
1499,450
1500,461
1501,474
1502,486
1503,494
1504,494
1505,499
1506,518
1507,538
1508,536
1509,530
1510,531
1511,532
1512,527
1513,508
1514,497
1515,492
1516,499
1517,507
1518,518
1519,506
1520,505
1521,502
1522,501
1523,499
1524,503
1525,515
1526,508
1527,514
1528,525
1529,533
1530,540
1531,553
1532,569
1533,582
1534,579
1535,556
1536,532
1537,523
1538,519
1539,519
1540,517
1541,497
1542,482
1543,486
1544,482
1545,467
1546,463
1547,469
1548,482
1549,494
1550,493
1551,487
1552,490
1553,482
1554,474
1555,470
1556,474
1557,491
1558,509
1559,514
1560,512
1561,519
1562,527
1563,526
1564,524
1565,519
1566,512
1567,488
1568,470
1569,455
1570,444
1571,445
1572,453
1573,449
1574,459
1575,471
1576,481
1577,491
1578,493
1579,487
1580,480
1581,458
1582,447
1583,457
1584,470
1585,490
1586,513
1587,533
1588,550
1589,559
1590,548
1591,537
1592,542
1593,554
1594,569
1595,585
1596,581
1597,569
1598,542
1599,530
1600,542
1601,574
1602,563
1603,561
1604,539
1605,506
1606,504
1607,505
1608,498
1609,494
1610,486
1611,489
1612,483
1613,486
1614,473
1615,478
1616,482
1617,491
1618,506
1619,516
1620,508
1621,516
1622,529
1623,546
1624,565
1625,558
1626,540
1627,524
1628,505
1629,496
1630,486
1631,481
1632,472
1633,445
1634,442
1635,451
1636,458
1637,466
1638,467
1639,484
1640,505
1641,527
1642,522
1643,505
1644,492
1645,491
1646,500
1647,511
1648,520
1649,532
1650,536
1651,542
1652,543
1653,531
1654,506
1655,488
1656,487
1657,481
1658,483
1659,494
1660,494
1661,488
1662,481
1663,470
1664,460
1665,445
1666,443
1667,452
1668,452
1669,462
1670,459
1671,458
1672,458
1673,475
1674,492
1675,499
1676,494
1677,496
1678,512
1679,517
1680,524
1681,526
1682,507
1683,509
1684,515
1685,519
1686,524
1687,519
1688,521
1689,532
1690,526
1691,507
1692,497
1693,492
1694,489
1695,501
1696,503
1697,475
1698,457
1699,445
1700,433
1701,432
1702,438
1703,432
1704,419
1705,405
1706,402
1707,408
1708,406
1709,413
1710,418
1711,430
1712,466
1713,478
1714,483
1715,479
1716,476
1717,490
1718,510
1719,513
1720,527
1721,531
1722,523
1723,505
1724,496
1725,483
1726,478
1727,491
1728,518
1729,529
1730,536
1731,532
1732,526
1733,529
1734,534
1735,524
1736,498
1737,467
1738,466
1739,487
1740,515
1741,530
1742,532
1743,544
1744,560
1745,564
1746,572
1747,582
1748,588
1749,600
1750,596
1751,589
1752,582
1753,572
1754,569
1755,561
1756,548
1757,535
1758,522
1759,505
1760,471
1761,460
1762,461
1763,475
1764,489
1765,502
1766,513
1767,525
1768,540
1769,519
1770,519
1771,519
1772,494
1773,458
1774,453
1775,448
1776,452
1777,477
1778,502
1779,533
1780,550
1781,549
1782,542
1783,524
1784,509
1785,500
1786,507
1787,518
1788,522
1789,531
1790,526
1791,531
1792,547
1793,559
1794,563
1795,557
1796,558
1797,559
1798,558
1799,558
1800,544
1801,540
1802,546
1803,553
1804,551
1805,545
1806,539
1807,538
1808,537
1809,539
1810,537
1811,539
1812,544
1813,553
1814,558
1815,559
1816,552
1817,540
1818,537
1819,532
1820,516
1821,508
1822,507
1823,518
1824,517
1825,520
1826,534
1827,553
1828,578
1829,584
1830,566
1831,553
1832,543
1833,535
1834,538
1835,536
1836,524
1837,515
1838,497
1839,484
1840,477
1841,481
1842,483
1843,470
1844,467
1845,476
1846,504
1847,534
1848,544
1849,532
1850,527
1851,531
1852,529
1853,533
1854,533
1855,524
1856,516
1857,511
1858,508
1859,507
1860,503
1861,502
1862,492
1863,478
1864,467
1865,465
1866,471
1867,475
1868,481
1869,496
1870,504
1871,517
1872,524
1873,538
1874,551
1875,553
1876,546
1877,548
1878,557
1879,547
1880,541
1881,528
1882,510
1883,514
1884,525
1885,529
1886,521
1887,508
1888,516
1889,517
1890,523
1891,533
1892,540
1893,553
1894,557
1895,556
1896,551
1897,541
1898,531
1899,511
1900,479
1901,468
1902,465
1903,480
1904,501
1905,506
1906,500
1907,505
1908,508
1909,485
1910,458
1911,449
1912,463
1913,472
1914,486
1915,496
1916,493
1917,485
1918,477
1919,470
1920,455
1921,454
1922,456
1923,460
1924,463
1925,471
1926,484
1927,498
1928,504
1929,509
1930,518
1931,521
1932,515
1933,512
1934,524
1935,538
1936,542
1937,531
1938,504
1939,487
1940,479
1941,479
1942,490
1943,484
1944,482
1945,491
1946,508
1947,499
1948,495
1949,501
1950,515
1951,527
1952,551
1953,550
1954,558
1955,557
1956,557
1957,561
1958,562
1959,555
1960,542
1961,537
1962,537
1963,529
1964,518
1965,512
1966,503
1967,495
1968,486
1969,490
1970,499
1971,514
1972,515
1973,505
1974,488
1975,479
1976,490
1977,503
1978,512
1979,512
1980,498
1981,500
1982,499
1983,472
1984,451
1985,449
1986,463
1987,493
1988,500
1989,503
1990,505
1991,513
1992,521
1993,529
1994,543
1995,537
1996,525
1997,510
1998,499
1999,488
