# OpenSignals Text File Format. Version 1
# {"98:D3:51:FD:71:01": {"position": 0, "device": "bitalino_rev", "device name": "98:D3:51:FD:71:01", "device connection": "BTH98:D3:51:FD:71:01", "sampling rate": 1000, "resolution": [4, 1, 1, 1, 1, 10, 10, 10, 10, 6, 6], "firmware version": 1282, "comments": "", "keywords": "", "mode": 0, "sync interval": 2, "date": "2024-4-19", "time": "11:49:6.198", "channels": [1, 2, 3, 4, 5, 6], "sensor": ["RAW", "RAW", "RAW", "RAW", "RAW", "RAW"], "label": ["A1", "A2", "A3", "A4", "A5", "A6"], "column": ["nSeq", "I1", "I2", "O1", "O2", "A1", "A2", "A3", "A4", "A5", "A6"], "special": [{}, {}, {}, {}, {}, {}], "digital IO": [0, 0, 1, 1]}}
# EndOfHeader
0	0	0	0	0	505	490	0	468	38	7	
1	0	0	0	0	501	485	0	470	38	7	
2	0	0	0	0	508	484	0	470	38	7	
3	0	0	0	0	511	487	0	470	38	7	
4	0	0	0	0	507	491	0	470	38	6	
5	0	0	0	0	508	493	0	468	38	6	
6	0	0	0	0	511	496	0	469	38	6	
7	0	0	0	0	505	499	0	466	39	6	
8	0	0	0	0	509	504	0	464	39	7	
9	0	0	0	0	513	507	0	463	39	7	
10	0	0	0	0	508	507	0	464	39	7	
11	0	0	0	0	507	506	0	464	38	7	
12	0	0	0	0	509	502	0	471	39	6	
13	0	0	0	0	515	497	0	487	38	6	
14	0	0	0	0	508	494	0	503	38	6	
15	0	0	0	0	505	496	0	502	39	6	
0	0	0	0	0	508	497	0	496	39	7	
1	0	0	0	0	503	501	0	492	39	7	
2	0	0	0	0	504	507	0	483	38	7	
3	0	0	0	0	508	511	0	477	38	7	
4	0	0	0	0	510	515	0	475	38	6	
5	0	0	0	0	511	524	0	470	39	6	
6	0	0	0	0	508	528	0	468	38	6	
7	0	0	0	0	512	526	0	468	39	6	
8	0	0	0	0	506	520	0	466	39	7	
9	0	0	0	0	512	514	0	464	38	7	
10	0	0	0	0	503	508	0	464	39	7	
11	0	0	0	0	504	502	0	463	38	7	
12	0	0	0	0	505	501	0	462	38	7	
13	0	0	0	0	504	505	0	461	39	6	
14	0	0	0	0	511	509	0	460	38	6	
15	0	0	0	0	507	512	0	462	39	6	
0	0	0	0	0	504	511	0	461	39	6	
1	0	0	0	0	506	514	0	458	39	7	
2	0	0	0	0	511	514	0	455	39	7	
3	0	0	0	0	509	513	0	455	38	7	
4	0	0	0	0	507	513	0	457	39	7	
5	0	0	0	0	506	515	0	459	38	6	
6	0	0	0	0	511	514	0	460	38	6	
7	0	0	0	0	505	511	0	456	39	6	
8	0	0	0	0	504	507	0	452	38	6	
9	0	0	0	0	507	507	0	449	39	7	
10	0	0	0	0	504	511	0	453	38	7	
11	0	0	0	0	503	513	0	468	38	7	
12	0	0	0	0	515	513	0	485	39	7	
13	0	0	0	0	511	513	0	501	38	6	
14	0	0	0	0	509	513	0	515	38	6	
15	0	0	0	0	505	516	0	528	39	6	
0	0	0	0	0	505	518	0	536	39	6	
1	0	0	0	0	509	519	0	525	39	7	
2	0	0	0	0	508	520	0	524	39	7	
3	0	0	0	0	503	521	0	535	38	7	
4	0	0	0	0	509	522	0	531	38	7	
5	0	0	0	0	508	522	0	541	38	7	
6	0	0	0	0	507	522	0	536	38	6	
7	0	0	0	0	497	521	0	535	39	6	
8	0	0	0	0	508	520	0	538	39	6	
9	0	0	0	0	510	518	0	528	38	6	
10	0	0	0	0	508	516	0	535	38	7	
11	0	0	0	0	511	515	0	537	38	7	
12	0	0	0	0	509	515	0	535	39	7	
13	0	0	0	0	505	513	0	539	39	7	
14	0	0	0	0	509	511	0	532	38	6	
15	0	0	0	0	511	510	0	538	39	6	
0	0	0	0	0	503	510	0	532	39	6	
1	0	0	0	0	499	510	0	524	39	6	
2	0	0	0	0	517	512	0	513	39	7	
3	0	0	0	0	510	516	0	500	38	7	
4	0	0	0	0	506	519	0	485	38	7	
5	0	0	0	0	513	518	0	475	39	7	
6	0	0	0	0	508	517	0	469	38	6	
7	0	0	0	0	508	516	0	463	39	6	
8	0	0	0	0	509	516	0	457	38	6	
9	0	0	0	0	513	516	0	452	39	6	
10	0	0	0	0	504	513	0	448	39	7	
11	0	0	0	0	508	511	0	452	38	7	
12	0	0	0	0	501	510	0	450	39	7	
13	0	0	0	0	508	510	0	453	39	7	
14	0	0	0	0	501	508	0	455	38	7	
15	0	0	0	0	511	507	0	454	39	6	
0	0	0	0	0	507	504	0	452	38	6	
1	0	0	0	0	506	502	0	452	39	6	
2	0	0	0	0	513	501	0	452	39	6	
3	0	0	0	0	505	502	0	454	38	7	
4	0	0	0	0	506	503	0	455	38	7	
5	0	0	0	0	508	504	0	457	39	7	
6	0	0	0	0	505	505	0	458	39	7	
7	0	0	0	0	510	510	0	459	39	6	
8	0	0	0	0	505	513	0	456	39	6	
9	0	0	0	0	508	519	0	454	39	6	
10	0	0	0	0	503	525	0	456	39	6	
11	0	0	0	0	511	531	0	459	38	7	
12	0	0	0	0	505	539	0	460	39	7	
13	0	0	0	0	509	544	0	465	39	7	
14	0	0	0	0	505	543	0	487	38	7	
15	0	0	0	0	507	537	0	502	39	7	
0	0	0	0	0	512	534	0	507	39	6	
1	0	0	0	0	507	531	0	527	39	6	
2	0	0	0	0	509	526	0	530	39	6	
3	0	0	0	0	508	520	0	542	38	6	
4	0	0	0	0	503	512	0	549	38	7	
5	0	0	0	0	509	509	0	539	39	7	
6	0	0	0	0	509	510	0	526	39	7	
7	0	0	0	0	498	509	0	532	39	7	
8	0	0	0	0	506	506	0	527	38	6	
9	0	0	0	0	509	502	0	528	39	6	
10	0	0	0	0	512	502	0	541	39	6	
11	0	0	0	0	503	507	0	538	38	6	
12	0	0	0	0	506	512	0	548	39	7	
13	0	0	0	0	514	515	0	547	38	7	
14	0	0	0	0	510	515	0	543	38	7	
15	0	0	0	0	506	514	0	545	39	7	
0	0	0	0	0	512	514	0	536	38	6	
1	0	0	0	0	507	516	0	543	38	6	
2	0	0	0	0	507	520	0	542	38	6	
3	0	0	0	0	508	522	0	537	38	6	
4	0	0	0	0	505	521	0	527	38	7	
5	0	0	0	0	509	520	0	514	38	7	
6	0	0	0	0	503	517	0	499	38	7	
7	0	0	0	0	516	514	0	489	39	7	
8	0	0	0	0	510	514	0	481	38	7	
9	0	0	0	0	508	512	0	471	39	6	
10	0	0	0	0	514	508	0	467	39	6	
11	0	0	0	0	501	500	0	465	38	6	
12	0	0	0	0	519	489	0	464	39	6	
13	0	0	0	0	506	485	0	464	38	7	
14	0	0	0	0	495	487	0	466	39	7	
15	0	0	0	0	504	488	0	467	39	7	
0	0	0	0	0	511	487	0	466	39	7	
1	0	0	0	0	514	488	0	459	39	6	
2	0	0	0	0	509	489	0	457	39	6	
3	0	0	0	0	508	492	0	462	38	6	
4	0	0	0	0	502	495	0	464	38	6	
5	0	0	0	0	506	500	0	467	38	7	
6	0	0	0	0	507	506	0	469	38	7	
7	0	0	0	0	500	507	0	469	39	7	
8	0	0	0	0	504	509	0	470	39	7	
9	0	0	0	0	508	512	0	464	38	6	
10	0	0	0	0	506	515	0	464	39	6	
11	0	0	0	0	503	516	0	470	38	6	
12	0	0	0	0	507	516	0	467	39	6	
13	0	0	0	0	512	516	0	467	39	7	
14	0	0	0	0	514	514	0	470	38	7	
15	0	0	0	0	508	510	0	470	39	7	
0	0	0	0	0	512	507	0	490	39	7	
1	0	0	0	0	513	504	0	506	39	7	
2	0	0	0	0	509	502	0	517	39	6	
3	0	0	0	0	505	498	0	539	38	6	
4	0	0	0	0	505	494	0	543	39	6	
5	0	0	0	0	503	492	0	553	39	6	
6	0	0	0	0	502	494	0	556	38	7	
7	0	0	0	0	513	497	0	551	39	7	
8	0	0	0	0	503	497	0	560	38	7	
9	0	0	0	0	508	498	0	551	39	7	
10	0	0	0	0	508	499	0	555	38	6	
11	0	0	0	0	511	501	0	572	38	6	
12	0	0	0	0	509	502	0	548	38	6	
13	0	0	0	0	505	503	0	541	38	6	
14	0	0	0	0	508	502	0	551	38	7	
15	0	0	0	0	508	500	0	546	39	7	
0	0	0	0	0	508	498	0	539	38	7	
1	0	0	0	0	505	496	0	526	39	7	
2	0	0	0	0	511	497	0	512	38	6	
3	0	0	0	0	505	496	0	502	38	6	
4	0	0	0	0	507	491	0	489	39	6	
5	0	0	0	0	519	483	0	481	38	6	
6	0	0	0	0	505	476	0	477	39	6	
7	0	0	0	0	508	475	0	476	39	7	
8	0	0	0	0	507	475	0	472	38	7	
9	0	0	0	0	501	473	0	466	38	7	
10	0	0	0	0	505	470	0	465	39	6	
11	0	0	0	0	504	466	0	469	38	6	
12	0	0	0	0	511	458	0	470	38	6	
13	0	0	0	0	503	452	0	472	39	6	
14	0	0	0	0	506	454	0	479	38	6	
15	0	0	0	0	507	459	0	474	39	7	
0	0	0	0	0	512	466	0	471	39	7	
1	0	0	0	0	508	476	0	470	39	7	
2	0	0	0	0	510	485	0	471	39	7	
3	0	0	0	0	502	497	0	473	38	6	
4	0	0	0	0	505	511	0	477	39	6	
5	0	0	0	0	504	525	0	480	39	6	
6	0	0	0	0	504	537	0	484	38	6	
7	0	0	0	0	515	549	0	484	39	7	
8	0	0	0	0	504	563	0	480	39	7	
9	0	0	0	0	510	579	0	479	38	7	
10	0	0	0	0	511	594	0	478	39	7	
11	0	0	0	0	507	608	0	481	38	6	
12	0	0	0	0	504	624	0	484	39	6	
13	0	0	0	0	509	643	0	483	39	6	
14	0	0	0	0	508	660	0	483	39	6	
15	0	0	0	0	514	678	0	482	39	6	
0	0	0	0	0	508	696	0	476	39	7	
1	0	0	0	0	504	719	0	473	39	7	
2	0	0	0	0	511	741	0	476	39	7	
3	0	0	0	0	511	761	0	477	38	6	
4	0	0	0	0	509	780	0	481	39	6	
5	0	0	0	0	509	800	0	487	39	6	
6	0	0	0	0	510	816	0	488	38	6	
7	0	0	0	0	508	830	0	487	39	6	
8	0	0	0	0	505	841	0	486	38	7	
9	0	0	0	0	509	852	0	492	38	7	
10	0	0	0	0	505	858	0	520	39	7	
11	0	0	0	0	505	859	0	534	38	7	
12	0	0	0	0	509	851	0	554	39	6	
13	0	0	0	0	506	838	0	571	39	6	
14	0	0	0	0	511	824	0	573	38	6	
15	0	0	0	0	510	807	0	581	39	6	
0	0	0	0	0	502	787	0	572	39	7	
1	0	0	0	0	510	760	0	572	38	7	
2	0	0	0	0	502	733	0	576	38	7	
3	0	0	0	0	506	704	0	579	38	7	
4	0	0	0	0	506	678	0	582	39	6	
5	0	0	0	0	507	649	0	573	39	6	
6	0	0	0	0	509	620	0	576	38	6	
7	0	0	0	0	504	590	0	574	39	6	
8	0	0	0	0	507	557	0	566	38	7	
9	0	0	0	0	503	525	0	575	39	7	
10	0	0	0	0	502	498	0	570	39	7	
11	0	0	0	0	507	473	0	577	38	7	
12	0	0	0	0	508	449	0	575	38	7	
13	0	0	0	0	511	425	0	569	39	6	
14	0	0	0	0	505	410	0	558	39	6	
15	0	0	0	0	507	402	0	541	39	6	
0	0	0	0	0	515	396	0	523	39	6	
1	0	0	0	0	503	391	0	509	38	7	
2	0	0	0	0	505	388	0	500	39	7	
3	0	0	0	0	508	388	0	499	38	7	
4	0	0	0	0	505	390	0	495	39	7	
5	0	0	0	0	504	388	0	492	39	6	
6	0	0	0	0	507	389	0	491	38	6	
7	0	0	0	0	507	390	0	488	39	6	
8	0	0	0	0	507	388	0	486	39	6	
9	0	0	0	0	515	387	0	482	39	7	
10	0	0	0	0	511	386	0	482	39	7	
11	0	0	0	0	513	386	0	485	38	7	
12	0	0	0	0	509	387	0	488	39	7	
13	0	0	0	0	504	391	0	491	39	6	
14	0	0	0	0	512	398	0	494	39	6	
15	0	0	0	0	505	406	0	492	39	6	
0	0	0	0	0	508	415	0	488	39	6	
1	0	0	0	0	509	423	0	485	39	6	
2	0	0	0	0	504	430	0	488	39	7	
3	0	0	0	0	505	432	0	491	38	7	
4	0	0	0	0	511	429	0	492	38	7	
5	0	0	0	0	506	429	0	495	38	7	
6	0	0	0	0	510	432	0	506	39	6	
7	0	0	0	0	508	439	0	531	39	6	
8	0	0	0	0	507	446	0	536	39	6	
9	0	0	0	0	513	451	0	552	39	6	
10	0	0	0	0	510	455	0	566	39	7	
11	0	0	0	0	506	459	0	567	38	7	
12	0	0	0	0	504	465	0	579	38	7	
13	0	0	0	0	508	469	0	575	39	7	
14	0	0	0	0	506	470	0	578	38	6	
15	0	0	0	0	499	470	0	577	39	6	
0	0	0	0	0	508	467	0	570	39	6	
1	0	0	0	0	504	465	0	575	39	6	
2	0	0	0	0	511	464	0	566	39	7	
3	0	0	0	0	507	461	0	560	38	7	
4	0	0	0	0	508	457	0	547	39	7	
5	0	0	0	0	504	457	0	532	38	7	
6	0	0	0	0	508	460	0	521	38	6	
7	0	0	0	0	509	461	0	513	39	6	
8	0	0	0	0	519	460	0	505	39	6	
9	0	0	0	0	508	460	0	499	38	6	
10	0	0	0	0	505	462	0	495	39	6	
11	0	0	0	0	510	464	0	498	38	7	
12	0	0	0	0	507	468	0	495	39	7	
13	0	0	0	0	507	472	0	495	39	7	
14	0	0	0	0	507	475	0	494	38	7	
15	0	0	0	0	505	478	0	493	39	6	
0	0	0	0	0	508	480	0	492	38	6	
1	0	0	0	0	513	483	0	485	38	6	
2	0	0	0	0	503	483	0	483	38	6	
3	0	0	0	0	504	483	0	497	38	7	
4	0	0	0	0	508	483	0	486	38	7	
5	0	0	0	0	510	480	0	489	39	7	
6	0	0	0	0	512	479	0	489	39	7	
7	0	0	0	0	512	478	0	487	39	6	
8	0	0	0	0	505	478	0	482	38	6	
9	0	0	0	0	505	477	0	480	38	6	
10	0	0	0	0	508	475	0	481	39	6	
11	0	0	0	0	502	470	0	484	38	7	
12	0	0	0	0	503	465	0	487	39	7	
13	0	0	0	0	505	462	0	489	38	7	
14	0	0	0	0	511	460	0	487	39	7	
15	0	0	0	0	501	460	0	492	39	7	
0	0	0	0	0	504	456	0	513	38	6	
1	0	0	0	0	508	454	0	522	39	6	
2	0	0	0	0	516	456	0	536	39	6	
3	0	0	0	0	512	463	0	554	38	7	
4	0	0	0	0	509	470	0	550	39	7	
5	0	0	0	0	513	474	0	539	39	7	
6	0	0	0	0	504	482	0	543	38	7	
7	0	0	0	0	502	487	0	545	39	7	
8	0	0	0	0	505	491	0	543	38	6	
9	0	0	0	0	510	494	0	554	39	6	
10	0	0	0	0	503	498	0	551	39	6	
11	0	0	0	0	512	502	0	556	38	6	
12	0	0	0	0	504	502	0	560	39	7	
13	0	0	0	0	510	504	0	558	39	7	
14	0	0	0	0	502	505	0	564	39	7	
15	0	0	0	0	508	505	0	552	39	7	
0	0	0	0	0	509	504	0	553	39	6	
1	0	0	0	0	504	501	0	551	39	6	
2	0	0	0	0	505	498	0	545	39	6	
3	0	0	0	0	507	497	0	536	38	6	
4	0	0	0	0	506	497	0	523	39	7	
5	0	0	0	0	510	496	0	511	39	7	
6	0	0	0	0	510	492	0	502	38	7	
7	0	0	0	0	508	489	0	495	39	7	
8	0	0	0	0	510	486	0	493	39	6	
9	0	0	0	0	512	481	0	484	39	6	
10	0	0	0	0	509	475	0	481	39	6	
11	0	0	0	0	504	468	0	495	38	6	
12	0	0	0	0	508	461	0	480	39	6	
13	0	0	0	0	510	452	0	479	38	7	
14	0	0	0	0	508	448	0	480	38	7	
15	0	0	0	0	502	453	0	478	39	7	
0	0	0	0	0	502	463	0	473	39	7	
1	0	0	0	0	504	470	0	472	39	6	
2	0	0	0	0	511	476	0	474	39	6	
3	0	0	0	0	509	480	0	477	38	6	
4	0	0	0	0	511	482	0	480	39	6	
5	0	0	0	0	504	490	0	482	39	7	
6	0	0	0	0	513	503	0	486	39	7	
7	0	0	0	0	507	511	0	486	39	7	
8	0	0	0	0	506	512	0	482	38	7	
9	0	0	0	0	508	515	0	488	38	6	
10	0	0	0	0	505	520	0	480	38	6	
11	0	0	0	0	505	524	0	482	38	6	
12	0	0	0	0	511	527	0	502	39	6	
13	0	0	0	0	517	527	0	489	39	7	
14	0	0	0	0	507	525	0	489	38	7	
15	0	0	0	0	505	522	0	507	39	7	
0	0	0	0	0	506	519	0	526	39	7	
1	0	0	0	0	501	517	0	533	39	6	
2	0	0	0	0	512	515	0	552	39	6	
3	0	0	0	0	505	513	0	557	38	6	
4	0	0	0	0	516	512	0	564	38	6	
5	0	0	0	0	507	510	0	574	39	6	
6	0	0	0	0	500	505	0	570	38	7	
7	0	0	0	0	502	499	0	579	39	7	
8	0	0	0	0	506	498	0	569	38	7	
9	0	0	0	0	509	500	0	563	38	7	
10	0	0	0	0	505	501	0	572	39	6	
11	0	0	0	0	504	500	0	568	38	6	
12	0	0	0	0	504	502	0	560	39	6	
13	0	0	0	0	512	503	0	544	38	6	
14	0	0	0	0	507	503	0	530	38	7	
15	0	0	0	0	505	508	0	527	39	7	
0	0	0	0	0	512	511	0	539	39	7	
1	0	0	0	0	505	512	0	536	39	7	
2	0	0	0	0	512	512	0	538	39	6	
3	0	0	0	0	507	512	0	532	38	6	
4	0	0	0	0	506	513	0	525	39	6	
5	0	0	0	0	511	515	0	517	39	6	
6	0	0	0	0	511	521	0	510	39	7	
7	0	0	0	0	511	524	0	504	39	7	
8	0	0	0	0	500	524	0	498	39	7	
9	0	0	0	0	502	523	0	490	39	7	
10	0	0	0	0	511	521	0	489	39	6	
11	0	0	0	0	504	523	0	488	38	6	
12	0	0	0	0	510	524	0	489	39	6	
13	0	0	0	0	513	526	0	489	39	6	
14	0	0	0	0	507	528	0	488	39	6	
15	0	0	0	0	504	533	0	491	39	7	
0	0	0	0	0	504	536	0	483	39	7	
1	0	0	0	0	514	539	0	480	39	7	
2	0	0	0	0	509	543	0	481	38	7	
3	0	0	0	0	505	542	0	482	38	6	
4	0	0	0	0	514	536	0	484	39	6	
5	0	0	0	0	502	532	0	486	39	6	
6	0	0	0	0	506	531	0	486	39	6	
7	0	0	0	0	511	531	0	486	39	7	
8	0	0	0	0	507	536	0	480	39	7	
9	0	0	0	0	502	538	0	478	39	7	
10	0	0	0	0	504	535	0	492	38	7	
11	0	0	0	0	513	534	0	481	38	6	
12	0	0	0	0	505	534	0	482	38	6	
13	0	0	0	0	513	535	0	499	38	6	
14	0	0	0	0	505	541	0	493	39	6	
15	0	0	0	0	507	545	0	515	39	7	
0	0	0	0	0	510	544	0	524	39	7	
1	0	0	0	0	502	539	0	535	38	7	
2	0	0	0	0	504	537	0	553	39	7	
3	0	0	0	0	509	535	0	556	38	6	
4	0	0	0	0	505	536	0	569	38	6	
5	0	0	0	0	510	541	0	569	38	6	
6	0	0	0	0	507	548	0	568	38	6	
7	0	0	0	0	510	553	0	572	39	6	
8	0	0	0	0	508	557	0	565	39	7	
9	0	0	0	0	508	560	0	571	38	7	
10	0	0	0	0	507	560	0	565	39	7	
11	0	0	0	0	510	560	0	557	38	7	
12	0	0	0	0	505	560	0	545	39	6	
13	0	0	0	0	508	561	0	531	39	6	
14	0	0	0	0	501	561	0	515	38	6	
15	0	0	0	0	503	561	0	502	39	6	
0	0	0	0	0	510	559	0	521	38	7	
1	0	0	0	0	505	557	0	521	38	7	
2	0	0	0	0	511	557	0	525	38	7	
3	0	0	0	0	505	557	0	527	38	7	
4	0	0	0	0	507	556	0	522	39	6	
5	0	0	0	0	511	558	0	516	39	6	
6	0	0	0	0	510	557	0	508	39	6	
7	0	0	0	0	505	556	0	502	39	6	
8	0	0	0	0	506	558	0	497	39	7	
9	0	0	0	0	506	564	0	491	39	7	
10	0	0	0	0	506	568	0	488	38	7	
11	0	0	0	0	505	568	0	488	38	7	
12	0	0	0	0	510	569	0	491	39	6	
13	0	0	0	0	504	569	0	491	39	6	
14	0	0	0	0	500	567	0	489	39	6	
15	0	0	0	0	511	569	0	487	39	6	
0	0	0	0	0	511	571	0	486	39	6	
1	0	0	0	0	505	572	0	480	39	7	
2	0	0	0	0	510	575	0	480	39	7	
3	0	0	0	0	511	580	0	492	38	7	
4	0	0	0	0	505	584	0	485	38	7	
5	0	0	0	0	505	584	0	486	38	6	
6	0	0	0	0	502	583	0	492	38	6	
7	0	0	0	0	503	583	0	490	39	6	
8	0	0	0	0	513	585	0	486	39	6	
9	0	0	0	0	510	587	0	485	38	7	
10	0	0	0	0	509	586	0	486	39	7	
11	0	0	0	0	508	583	0	488	38	7	
12	0	0	0	0	507	580	0	490	39	7	
13	0	0	0	0	513	576	0	491	39	6	
14	0	0	0	0	511	574	0	493	38	6	
15	0	0	0	0	513	574	0	501	39	6	
0	0	0	0	0	504	576	0	524	39	6	
1	0	0	0	0	506	577	0	535	39	7	
2	0	0	0	0	509	576	0	551	38	7	
3	0	0	0	0	508	574	0	559	38	7	
4	0	0	0	0	506	572	0	576	39	7	
5	0	0	0	0	509	572	0	575	39	6	
6	0	0	0	0	505	575	0	571	39	6	
7	0	0	0	0	508	575	0	582	39	6	
8	0	0	0	0	510	573	0	569	38	6	
9	0	0	0	0	505	572	0	559	39	6	
10	0	0	0	0	512	571	0	567	38	7	
11	0	0	0	0	505	568	0	558	38	7	
12	0	0	0	0	508	565	0	554	38	7	
13	0	0	0	0	507	561	0	539	38	7	
14	0	0	0	0	511	558	0	524	39	6	
15	0	0	0	0	502	556	0	519	39	6	
0	0	0	0	0	502	551	0	528	39	6	
1	0	0	0	0	508	546	0	531	38	6	
2	0	0	0	0	510	540	0	535	38	7	
3	0	0	0	0	510	536	0	528	38	7	
4	0	0	0	0	511	539	0	518	38	7	
5	0	0	0	0	507	540	0	508	38	7	
6	0	0	0	0	504	539	0	499	39	6	
7	0	0	0	0	513	535	0	491	39	6	
8	0	0	0	0	506	529	0	484	39	6	
9	0	0	0	0	510	526	0	479	38	6	
10	0	0	0	0	507	524	0	477	39	7	
11	0	0	0	0	504	519	0	474	38	7	
12	0	0	0	0	511	511	0	475	38	7	
13	0	0	0	0	507	503	0	483	39	7	
14	0	0	0	0	505	502	0	480	39	7	
15	0	0	0	0	505	509	0	478	39	6	
0	0	0	0	0	501	514	0	476	39	6	
1	0	0	0	0	509	519	0	474	39	6	
2	0	0	0	0	504	518	0	479	39	6	
3	0	0	0	0	515	514	0	481	38	7	
4	0	0	0	0	514	510	0	483	39	7	
5	0	0	0	0	511	502	0	496	38	7	
6	0	0	0	0	508	494	0	486	38	7	
7	0	0	0	0	502	489	0	483	39	6	
8	0	0	0	0	501	487	0	482	38	6	
9	0	0	0	0	514	487	0	476	39	6	
10	0	0	0	0	510	489	0	475	39	6	
11	0	0	0	0	505	493	0	477	38	7	
12	0	0	0	0	509	492	0	480	39	7	
13	0	0	0	0	494	491	0	483	39	7	
14	0	0	0	0	500	489	0	484	38	7	
15	0	0	0	0	508	484	0	481	39	6	
0	0	0	0	0	511	480	0	480	39	6	
1	0	0	0	0	515	480	0	476	39	6	
2	0	0	0	0	506	478	0	478	39	6	
3	0	0	0	0	503	475	0	487	38	7	
4	0	0	0	0	511	470	0	483	39	7	
5	0	0	0	0	508	465	0	487	38	7	
6	0	0	0	0	512	457	0	489	39	7	
7	0	0	0	0	508	450	0	492	39	7	
8	0	0	0	0	502	445	0	487	39	6	
9	0	0	0	0	507	442	0	486	39	6	
10	0	0	0	0	510	438	0	487	38	6	
11	0	0	0	0	506	434	0	489	38	6	
12	0	0	0	0	509	432	0	493	39	7	
13	0	0	0	0	503	431	0	495	38	7	
14	0	0	0	0	507	430	0	499	39	7	
15	0	0	0	0	510	431	0	496	39	7	
0	0	0	0	0	509	433	0	492	39	6	
1	0	0	0	0	513	434	0	491	38	6	
2	0	0	0	0	504	437	0	490	39	6	
3	0	0	0	0	507	440	0	512	38	6	
4	0	0	0	0	502	445	0	532	39	7	
5	0	0	0	0	512	449	0	541	39	7	
6	0	0	0	0	508	451	0	562	38	7	
7	0	0	0	0	508	450	0	565	39	7	
8	0	0	0	0	509	449	0	570	39	6	
9	0	0	0	0	508	451	0	567	39	6	
10	0	0	0	0	511	451	0	564	39	6	
11	0	0	0	0	502	449	0	571	38	6	
12	0	0	0	0	505	447	0	566	39	7	
13	0	0	0	0	507	444	0	571	39	7	
14	0	0	0	0	510	440	0	572	38	7	
15	0	0	0	0	510	438	0	567	39	7	
0	0	0	0	0	508	435	0	571	39	7	
1	0	0	0	0	507	434	0	559	39	6	
2	0	0	0	0	513	435	0	563	39	6	
3	0	0	0	0	512	435	0	567	38	6	
4	0	0	0	0	502	431	0	565	39	6	
5	0	0	0	0	508	426	0	583	39	7	
6	0	0	0	0	508	419	0	563	39	7	
7	0	0	0	0	506	414	0	563	39	7	
8	0	0	0	0	507	409	0	560	39	7	
9	0	0	0	0	511	403	0	549	39	6	
10	0	0	0	0	507	399	0	539	38	6	
11	0	0	0	0	502	396	0	524	38	6	
12	0	0	0	0	506	396	0	512	39	6	
13	0	0	0	0	513	399	0	502	39	7	
14	0	0	0	0	505	403	0	496	39	7	
15	0	0	0	0	505	404	0	493	39	7	
0	0	0	0	0	511	407	0	493	39	7	
1	0	0	0	0	507	418	0	510	39	6	
2	0	0	0	0	506	432	0	528	39	6	
3	0	0	0	0	507	441	0	539	38	6	
4	0	0	0	0	501	448	0	537	39	6	
5	0	0	0	0	503	452	0	529	39	7	
6	0	0	0	0	506	454	0	519	38	7	
7	0	0	0	0	506	454	0	523	39	7	
8	0	0	0	0	510	453	0	535	39	7	
9	0	0	0	0	514	453	0	531	39	7	
10	0	0	0	0	512	453	0	530	39	6	
11	0	0	0	0	502	447	0	521	38	6	
12	0	0	0	0	502	442	0	511	39	6	
13	0	0	0	0	515	438	0	503	39	6	
14	0	0	0	0	507	435	0	496	38	7	
15	0	0	0	0	507	438	0	488	39	7	
0	0	0	0	0	509	439	0	486	39	7	
1	0	0	0	0	498	437	0	480	38	7	
2	0	0	0	0	508	435	0	478	39	6	
3	0	0	0	0	513	436	0	478	38	6	
4	0	0	0	0	504	442	0	476	39	6	
5	0	0	0	0	511	447	0	476	39	6	
6	0	0	0	0	509	450	0	475	38	7	
7	0	0	0	0	503	449	0	472	39	7	
8	0	0	0	0	505	449	0	472	38	7	
9	0	0	0	0	509	449	0	467	38	7	
10	0	0	0	0	510	446	0	464	39	6	
11	0	0	0	0	503	443	0	468	38	6	
12	0	0	0	0	504	443	0	471	39	6	
13	0	0	0	0	502	444	0	476	39	6	
14	0	0	0	0	507	441	0	479	38	7	
15	0	0	0	0	512	439	0	479	39	7	
0	0	0	0	0	507	439	0	477	38	7	
1	0	0	0	0	506	441	0	471	39	7	
2	0	0	0	0	506	444	0	472	39	7	
3	0	0	0	0	514	446	0	475	38	6	
4	0	0	0	0	510	450	0	477	39	6	
5	0	0	0	0	506	455	0	478	38	6	
6	0	0	0	0	508	460	0	490	38	6	
7	0	0	0	0	509	463	0	515	39	7	
8	0	0	0	0	500	464	0	520	39	7	
9	0	0	0	0	513	465	0	536	39	7	
10	0	0	0	0	506	469	0	545	39	7	
11	0	0	0	0	508	473	0	547	38	6	
12	0	0	0	0	507	476	0	563	38	6	
13	0	0	0	0	506	477	0	558	39	6	
14	0	0	0	0	506	476	0	566	38	6	
15	0	0	0	0	505	474	0	564	39	7	
0	0	0	0	0	509	473	0	558	39	7	
1	0	0	0	0	511	469	0	565	39	7	
2	0	0	0	0	504	467	0	558	39	7	
3	0	0	0	0	515	466	0	560	38	7	
4	0	0	0	0	507	465	0	561	39	6	
5	0	0	0	0	512	464	0	558	39	6	
6	0	0	0	0	505	465	0	568	39	6	
7	0	0	0	0	499	463	0	558	39	7	
8	0	0	0	0	504	461	0	548	39	7	
9	0	0	0	0	509	457	0	534	39	7	
10	0	0	0	0	511	452	0	519	39	7	
11	0	0	0	0	506	450	0	507	38	7	
12	0	0	0	0	503	449	0	496	39	6	
13	0	0	0	0	506	449	0	490	38	6	
14	0	0	0	0	504	450	0	488	38	6	
15	0	0	0	0	509	452	0	484	39	6	
0	0	0	0	0	506	455	0	479	38	7	
1	0	0	0	0	504	460	0	472	38	7	
2	0	0	0	0	513	462	0	470	39	7	
3	0	0	0	0	504	463	0	473	38	7	
4	0	0	0	0	503	466	0	474	39	6	
5	0	0	0	0	511	470	0	476	39	6	
6	0	0	0	0	508	473	0	492	38	6	
7	0	0	0	0	506	479	0	476	39	6	
8	0	0	0	0	510	484	0	472	38	7	
9	0	0	0	0	513	487	0	471	39	7	
10	0	0	0	0	506	487	0	473	39	7	
11	0	0	0	0	507	485	0	475	38	7	
12	0	0	0	0	506	482	0	478	39	6	
13	0	0	0	0	504	482	0	481	38	6	
14	0	0	0	0	511	480	0	486	38	6	
15	0	0	0	0	505	478	0	487	39	6	
0	0	0	0	0	504	478	0	483	38	7	
1	0	0	0	0	507	479	0	485	39	7	
2	0	0	0	0	505	481	0	481	38	7	
3	0	0	0	0	505	481	0	483	38	7	
4	0	0	0	0	508	481	0	488	38	7	
5	0	0	0	0	508	482	0	489	39	6	
6	0	0	0	0	514	481	0	492	38	6	
7	0	0	0	0	508	480	0	506	39	6	
8	0	0	0	0	510	475	0	526	39	6	
9	0	0	0	0	505	471	0	534	38	7	
10	0	0	0	0	508	470	0	554	38	7	
11	0	0	0	0	503	471	0	561	38	7	
12	0	0	0	0	510	472	0	566	39	7	
13	0	0	0	0	508	471	0	577	39	6	
14	0	0	0	0	518	470	0	577	39	6	
15	0	0	0	0	502	474	0	584	39	6	
0	0	0	0	0	511	483	0	576	39	6	
1	0	0	0	0	503	489	0	572	39	7	
2	0	0	0	0	508	492	0	578	39	7	
3	0	0	0	0	510	496	0	572	38	7	
4	0	0	0	0	506	497	0	566	39	7	
5	0	0	0	0	511	500	0	551	38	6	
6	0	0	0	0	518	505	0	538	38	6	
7	0	0	0	0	506	510	0	532	39	6	
8	0	0	0	0	504	509	0	543	39	6	
9	0	0	0	0	502	507	0	545	39	7	
10	0	0	0	0	504	505	0	543	39	7	
11	0	0	0	0	506	505	0	537	38	7	
12	0	0	0	0	510	504	0	530	39	7	
13	0	0	0	0	509	502	0	524	39	7	
14	0	0	0	0	508	500	0	519	39	6	
15	0	0	0	0	508	499	0	514	39	6	
0	0	0	0	0	502	497	0	508	38	6	
1	0	0	0	0	512	494	0	504	39	6	
2	0	0	0	0	515	492	0	501	39	7	
3	0	0	0	0	499	487	0	501	38	7	
4	0	0	0	0	508	483	0	504	39	7	
5	0	0	0	0	518	482	0	505	39	7	
6	0	0	0	0	514	480	0	505	39	6	
7	0	0	0	0	512	479	0	508	39	6	
8	0	0	0	0	505	479	0	503	39	6	
9	0	0	0	0	505	481	0	504	38	6	
10	0	0	0	0	502	483	0	504	39	7	
11	0	0	0	0	507	488	0	505	38	7	
12	0	0	0	0	498	492	0	511	38	7	
13	0	0	0	0	505	494	0	515	39	7	
14	0	0	0	0	502	494	0	514	39	6	
15	0	0	0	0	510	492	0	513	39	6	
0	0	0	0	0	508	490	0	510	39	6	
1	0	0	0	0	504	490	0	509	38	6	
2	0	0	0	0	508	491	0	508	38	7	
3	0	0	0	0	513	493	0	509	38	7	
4	0	0	0	0	512	498	0	510	38	7	
5	0	0	0	0	502	501	0	513	39	7	
6	0	0	0	0	507	504	0	522	38	7	
7	0	0	0	0	508	501	0	545	39	6	
8	0	0	0	0	506	500	0	555	38	6	
9	0	0	0	0	510	500	0	567	38	6	
10	0	0	0	0	513	503	0	583	39	6	
11	0	0	0	0	509	507	0	586	38	7	
12	0	0	0	0	507	510	0	600	38	7	
13	0	0	0	0	510	510	0	596	39	7	
14	0	0	0	0	509	510	0	596	38	7	
15	0	0	0	0	511	513	0	602	39	6	
0	0	0	0	0	500	514	0	594	38	6	
1	0	0	0	0	498	513	0	599	38	6	
2	0	0	0	0	508	509	0	591	39	6	
3	0	0	0	0	503	505	0	583	38	7	
4	0	0	0	0	514	502	0	571	39	7	
5	0	0	0	0	515	498	0	552	39	7	
6	0	0	0	0	515	496	0	536	39	7	
7	0	0	0	0	513	494	0	524	39	6	
8	0	0	0	0	507	489	0	511	38	6	
9	0	0	0	0	504	486	0	500	39	6	
10	0	0	0	0	502	486	0	497	39	6	
11	0	0	0	0	496	490	0	494	38	7	
12	0	0	0	0	506	493	0	496	39	7	
13	0	0	0	0	505	496	0	495	39	7	
14	0	0	0	0	513	499	0	495	39	7	
15	0	0	0	0	512	501	0	496	39	7	
0	0	0	0	0	505	500	0	491	39	6	
1	0	0	0	0	510	500	0	492	39	6	
2	0	0	0	0	504	501	0	491	39	6	
3	0	0	0	0	507	500	0	491	38	6	
4	0	0	0	0	505	500	0	493	39	7	
5	0	0	0	0	507	501	0	493	39	7	
6	0	0	0	0	511	504	0	491	38	7	
7	0	0	0	0	510	507	0	490	39	7	
8	0	0	0	0	511	512	0	487	39	6	
9	0	0	0	0	504	516	0	484	39	6	
10	0	0	0	0	508	517	0	485	39	6	
11	0	0	0	0	509	517	0	487	38	6	
12	0	0	0	0	503	518	0	490	39	7	
13	0	0	0	0	512	517	0	492	39	7	
14	0	0	0	0	509	515	0	492	38	7	
15	0	0	0	0	502	514	0	493	39	7	
0	0	0	0	0	507	512	0	511	39	7	
1	0	0	0	0	504	509	0	524	39	6	
2	0	0	0	0	510	507	0	551	39	6	
3	0	0	0	0	509	506	0	557	38	6	
4	0	0	0	0	506	505	0	559	39	7	
5	0	0	0	0	515	505	0	570	39	7	
6	0	0	0	0	509	503	0	572	38	7	
7	0	0	0	0	506	497	0	568	39	7	
8	0	0	0	0	508	492	0	577	39	7	
9	0	0	0	0	505	487	0	571	38	6	
10	0	0	0	0	502	480	0	577	38	6	
11	0	0	0	0	515	478	0	575	38	6	
12	0	0	0	0	508	479	0	567	39	6	
13	0	0	0	0	512	480	0	560	39	7	
14	0	0	0	0	498	481	0	569	38	7	
15	0	0	0	0	511	487	0	562	39	7	
0	0	0	0	0	504	492	0	553	38	7	
1	0	0	0	0	511	496	0	543	39	6	
2	0	0	0	0	512	500	0	531	39	6	
3	0	0	0	0	507	502	0	517	38	6	
4	0	0	0	0	507	502	0	507	39	6	
5	0	0	0	0	500	503	0	499	38	7	
6	0	0	0	0	507	502	0	493	38	7	
7	0	0	0	0	508	506	0	490	39	7	
8	0	0	0	0	509	509	0	483	39	7	
9	0	0	0	0	512	511	0	479	39	7	
10	0	0	0	0	505	515	0	478	39	6	
11	0	0	0	0	508	519	0	479	38	6	
12	0	0	0	0	509	520	0	481	38	6	
13	0	0	0	0	504	518	0	484	38	7	
14	0	0	0	0	509	513	0	483	38	7	
15	0	0	0	0	503	511	0	481	39	7	
0	0	0	0	0	506	509	0	478	39	7	
1	0	0	0	0	512	509	0	476	39	7	
2	0	0	0	0	507	508	0	477	38	6	
3	0	0	0	0	510	504	0	477	38	6	
4	0	0	0	0	507	502	0	478	38	6	
5	0	0	0	0	509	501	0	480	39	6	
6	0	0	0	0	510	503	0	482	39	7	
7	0	0	0	0	509	505	0	480	39	7	
8	0	0	0	0	502	507	0	475	39	7	
9	0	0	0	0	504	510	0	473	39	7	
10	0	0	0	0	497	512	0	476	39	6	
11	0	0	0	0	517	513	0	476	38	6	
12	0	0	0	0	510	516	0	479	39	6	
13	0	0	0	0	507	517	0	501	39	6	
14	0	0	0	0	511	518	0	519	39	7	
15	0	0	0	0	508	518	0	527	39	7	
0	0	0	0	0	505	518	0	543	39	7	
1	0	0	0	0	499	516	0	539	39	7	
2	0	0	0	0	505	514	0	548	39	6	
3	0	0	0	0	510	512	0	554	38	6	
4	0	0	0	0	512	508	0	551	39	6	
5	0	0	0	0	511	507	0	573	38	6	
6	0	0	0	0	508	508	0	552	38	7	
7	0	0	0	0	504	509	0	554	39	7	
8	0	0	0	0	510	508	0	550	38	7	
9	0	0	0	0	506	507	0	539	39	7	
10	0	0	0	0	511	504	0	532	38	7	
11	0	0	0	0	507	504	0	515	38	6	
12	0	0	0	0	511	505	0	500	39	6	
13	0	0	0	0	507	508	0	490	38	6	
14	0	0	0	0	503	511	0	481	39	6	
15	0	0	0	0	508	510	0	476	39	7	
0	0	0	0	0	508	510	0	470	38	7	
1	0	0	0	0	506	509	0	464	39	7	
2	0	0	0	0	503	507	0	467	38	7	
3	0	0	0	0	508	503	0	466	38	6	
4	0	0	0	0	511	498	0	467	38	6	
5	0	0	0	0	508	492	0	469	38	6	
6	0	0	0	0	503	489	0	469	38	6	
7	0	0	0	0	511	489	0	467	39	7	
8	0	0	0	0	508	491	0	465	38	7	
9	0	0	0	0	511	496	0	460	39	7	
10	0	0	0	0	509	501	0	463	38	7	
11	0	0	0	0	504	504	0	462	38	6	
12	0	0	0	0	506	503	0	466	38	6	
13	0	0	0	0	503	501	0	478	39	6	
14	0	0	0	0	510	502	0	472	39	6	
15	0	0	0	0	505	507	0	472	39	7	
0	0	0	0	0	510	516	0	471	39	7	
1	0	0	0	0	504	522	0	470	39	7	
2	0	0	0	0	508	524	0	472	39	7	
3	0	0	0	0	507	524	0	476	38	7	
4	0	0	0	0	502	524	0	479	38	6	
5	0	0	0	0	513	519	0	483	38	6	
6	0	0	0	0	510	516	0	482	38	6	
7	0	0	0	0	502	512	0	481	39	6	
8	0	0	0	0	511	509	0	482	38	7	
9	0	0	0	0	506	507	0	476	39	7	
10	0	0	0	0	511	505	0	477	39	7	
11	0	0	0	0	507	502	0	480	38	7	
12	0	0	0	0	507	500	0	483	39	6	
13	0	0	0	0	507	501	0	489	39	6	
14	0	0	0	0	506	501	0	490	38	6	
15	0	0	0	0	506	499	0	487	39	6	
0	0	0	0	0	509	497	0	484	38	7	
1	0	0	0	0	512	497	0	480	39	7	
2	0	0	0	0	511	501	0	483	39	7	
3	0	0	0	0	505	508	0	483	38	7	
4	0	0	0	0	509	509	0	485	39	6	
5	0	0	0	0	508	511	0	489	39	6	
6	0	0	0	0	511	514	0	499	39	6	
7	0	0	0	0	505	517	0	522	39	6	
8	0	0	0	0	510	520	0	530	39	7	
9	0	0	0	0	507	521	0	547	39	7	
10	0	0	0	0	506	523	0	560	39	7	
11	0	0	0	0	508	522	0	562	38	7	
12	0	0	0	0	508	522	0	577	39	7	
13	0	0	0	0	507	520	0	587	39	6	
14	0	0	0	0	507	517	0	583	39	6	
15	0	0	0	0	507	515	0	577	39	6	
0	0	0	0	0	510	516	0	568	39	6	
1	0	0	0	0	510	518	0	574	38	7	
2	0	0	0	0	499	518	0	566	38	7	
3	0	0	0	0	508	516	0	572	38	7	
4	0	0	0	0	506	515	0	577	38	7	
5	0	0	0	0	508	515	0	576	38	6	
6	0	0	0	0	508	516	0	583	38	6	
7	0	0	0	0	509	516	0	571	39	6	
8	0	0	0	0	507	515	0	575	39	6	
9	0	0	0	0	502	514	0	573	39	7	
10	0	0	0	0	510	513	0	566	39	7	
11	0	0	0	0	505	512	0	557	38	7	
12	0	0	0	0	505	511	0	542	38	7	
13	0	0	0	0	513	506	0	526	38	6	
14	0	0	0	0	504	502	0	515	38	6	
15	0	0	0	0	511	500	0	505	39	6	
0	0	0	0	0	510	499	0	502	38	6	
1	0	0	0	0	511	497	0	493	38	7	
2	0	0	0	0	508	498	0	489	38	7	
3	0	0	0	0	512	502	0	493	38	7	
4	0	0	0	0	513	508	0	492	39	7	
5	0	0	0	0	511	511	0	494	39	7	
6	0	0	0	0	505	511	0	495	39	6	
7	0	0	0	0	515	510	0	492	39	6	
8	0	0	0	0	507	508	0	488	39	6	
9	0	0	0	0	500	504	0	487	39	6	
10	0	0	0	0	508	502	0	488	39	7	
11	0	0	0	0	510	503	0	492	38	7	
12	0	0	0	0	514	506	0	495	39	7	
13	0	0	0	0	503	507	0	498	38	7	
14	0	0	0	0	506	509	0	501	39	6	
15	0	0	0	0	508	512	0	502	39	6	
0	0	0	0	0	508	512	0	498	39	6	
1	0	0	0	0	513	513	0	496	39	6	
2	0	0	0	0	506	513	0	496	39	7	
3	0	0	0	0	512	509	0	499	38	7	
4	0	0	0	0	502	503	0	504	39	7	
5	0	0	0	0	500	501	0	507	38	7	
6	0	0	0	0	508	503	0	508	39	6	
7	0	0	0	0	507	510	0	524	39	6	
8	0	0	0	0	504	517	0	545	39	6	
9	0	0	0	0	513	521	0	555	38	6	
10	0	0	0	0	509	523	0	573	39	7	
11	0	0	0	0	506	521	0	577	38	7	
12	0	0	0	0	514	516	0	583	39	7	
13	0	0	0	0	512	511	0	594	39	7	
14	0	0	0	0	506	505	0	591	38	7	
15	0	0	0	0	507	500	0	599	39	6	
0	0	0	0	0	511	498	0	589	38	6	
1	0	0	0	0	506	495	0	584	38	6	
2	0	0	0	0	509	491	0	591	39	6	
3	0	0	0	0	498	492	0	584	38	7	
4	0	0	0	0	507	497	0	577	38	7	
5	0	0	0	0	506	500	0	560	39	7	
6	0	0	0	0	500	505	0	545	39	7	
7	0	0	0	0	512	508	0	539	39	6	
8	0	0	0	0	505	512	0	548	38	6	
9	0	0	0	0	511	514	0	549	38	6	
10	0	0	0	0	510	516	0	546	39	6	
11	0	0	0	0	505	521	0	538	38	7	
12	0	0	0	0	512	526	0	530	39	7	
13	0	0	0	0	508	527	0	521	39	7	
14	0	0	0	0	504	528	0	516	39	7	
15	0	0	0	0	505	531	0	508	39	7	
0	0	0	0	0	508	533	0	502	38	6	
1	0	0	0	0	513	533	0	503	38	6	
2	0	0	0	0	505	534	0	496	38	6	
3	0	0	0	0	517	533	0	497	38	7	
4	0	0	0	0	507	533	0	498	39	7	
5	0	0	0	0	504	533	0	499	38	7	
6	0	0	0	0	507	533	0	503	38	7	
7	0	0	0	0	503	531	0	500	39	7	
8	0	0	0	0	509	528	0	495	39	6	
9	0	0	0	0	510	528	0	492	39	6	
10	0	0	0	0	512	533	0	493	38	6	
11	0	0	0	0	506	534	0	494	38	6	
12	0	0	0	0	506	533	0	497	38	7	
13	0	0	0	0	501	536	0	497	39	7	
14	0	0	0	0	496	537	0	499	39	7	
15	0	0	0	0	504	536	0	496	39	7	
0	0	0	0	0	514	532	0	492	39	6	
1	0	0	0	0	508	527	0	492	39	6	
2	0	0	0	0	510	521	0	492	39	6	
3	0	0	0	0	514	514	0	495	38	6	
4	0	0	0	0	502	508	0	501	38	7	
5	0	0	0	0	499	505	0	500	39	7	
6	0	0	0	0	512	504	0	508	38	7	
7	0	0	0	0	511	503	0	532	39	7	
8	0	0	0	0	503	503	0	542	39	7	
9	0	0	0	0	508	503	0	555	39	6	
10	0	0	0	0	505	506	0	570	39	6	
11	0	0	0	0	510	512	0	573	38	6	
12	0	0	0	0	505	515	0	590	39	7	
13	0	0	0	0	502	517	0	585	39	7	
14	0	0	0	0	503	519	0	584	38	7	
15	0	0	0	0	510	524	0	589	39	7	
0	0	0	0	0	513	526	0	579	39	7	
1	0	0	0	0	506	526	0	584	39	6	
2	0	0	0	0	507	527	0	579	39	6	
3	0	0	0	0	515	532	0	570	38	6	
4	0	0	0	0	504	536	0	559	39	6	
5	0	0	0	0	505	539	0	543	39	7	
6	0	0	0	0	503	538	0	528	39	7	
7	0	0	0	0	509	531	0	518	39	7	
8	0	0	0	0	500	522	0	507	38	7	
9	0	0	0	0	504	519	0	498	39	6	
10	0	0	0	0	511	520	0	494	39	6	
11	0	0	0	0	509	523	0	492	38	6	
12	0	0	0	0	512	528	0	493	39	6	
13	0	0	0	0	505	531	0	494	38	7	
14	0	0	0	0	500	529	0	494	39	7	
15	0	0	0	0	509	525	0	495	39	7	
0	0	0	0	0	513	523	0	489	38	7	
1	0	0	0	0	508	525	0	492	38	7	
2	0	0	0	0	512	527	0	488	39	6	
3	0	0	0	0	506	526	0	490	38	6	
4	0	0	0	0	511	524	0	493	38	6	
5	0	0	0	0	509	522	0	495	39	7	
6	0	0	0	0	501	518	0	494	38	7	
7	0	0	0	0	514	522	0	491	39	7	
8	0	0	0	0	512	531	0	487	39	7	
9	0	0	0	0	507	535	0	487	38	7	
10	0	0	0	0	498	532	0	485	39	6	
11	0	0	0	0	504	526	0	486	38	6	
12	0	0	0	0	511	524	0	492	38	6	
13	0	0	0	0	508	520	0	492	39	6	
14	0	0	0	0	509	517	0	495	38	7	
15	0	0	0	0	505	514	0	494	39	7	
0	0	0	0	0	504	512	0	512	38	7	
1	0	0	0	0	504	509	0	526	39	7	
2	0	0	0	0	511	509	0	536	39	6	
3	0	0	0	0	505	512	0	560	38	6	
4	0	0	0	0	504	511	0	564	39	6	
5	0	0	0	0	505	508	0	574	38	6	
6	0	0	0	0	510	504	0	573	39	7	
7	0	0	0	0	515	500	0	567	39	7	
8	0	0	0	0	502	497	0	576	38	7	
9	0	0	0	0	508	497	0	568	39	7	
10	0	0	0	0	505	495	0	571	38	7	
11	0	0	0	0	507	492	0	581	38	6	
12	0	0	0	0	511	491	0	563	39	6	
13	0	0	0	0	500	490	0	555	39	6	
14	0	0	0	0	509	489	0	563	38	7	
15	0	0	0	0	510	490	0	556	39	7	
0	0	0	0	0	508	494	0	548	38	7	
1	0	0	0	0	505	497	0	537	39	7	
2	0	0	0	0	505	499	0	523	39	7	
3	0	0	0	0	511	503	0	513	38	6	
4	0	0	0	0	516	504	0	502	39	6	
5	0	0	0	0	505	505	0	494	38	6	
6	0	0	0	0	510	504	0	488	39	6	
7	0	0	0	0	505	502	0	487	39	7	
8	0	0	0	0	509	500	0	481	39	7	
9	0	0	0	0	504	501	0	479	39	7	
10	0	0	0	0	504	504	0	478	39	7	
11	0	0	0	0	502	506	0	480	38	6	
12	0	0	0	0	509	503	0	484	39	6	
13	0	0	0	0	511	500	0	485	39	6	
14	0	0	0	0	514	502	0	486	39	6	
15	0	0	0	0	506	505	0	485	39	7	
0	0	0	0	0	511	508	0	483	39	7	
1	0	0	0	0	509	513	0	480	39	7	
2	0	0	0	0	504	515	0	479	39	7	
3	0	0	0	0	510	514	0	481	38	7	
4	0	0	0	0	508	514	0	482	39	6	
5	0	0	0	0	505	515	0	483	39	6	
6	0	0	0	0	501	516	0	486	38	6	
7	0	0	0	0	509	514	0	485	39	7	
8	0	0	0	0	508	507	0	482	38	7	
9	0	0	0	0	509	501	0	480	38	7	
10	0	0	0	0	511	498	0	482	38	7	
11	0	0	0	0	507	502	0	487	38	7	
12	0	0	0	0	507	506	0	489	39	6	
13	0	0	0	0	503	505	0	490	39	6	
14	0	0	0	0	503	502	0	508	38	6	
15	0	0	0	0	507	499	0	529	39	6	
0	0	0	0	0	508	499	0	537	39	7	
1	0	0	0	0	510	503	0	556	38	7	
2	0	0	0	0	509	504	0	559	39	7	
3	0	0	0	0	508	504	0	566	38	7	
4	0	0	0	0	496	500	0	579	38	6	
5	0	0	0	0	509	497	0	579	39	6	
6	0	0	0	0	507	491	0	587	38	6	
7	0	0	0	0	512	489	0	577	39	6	
8	0	0	0	0	517	490	0	573	39	7	
9	0	0	0	0	511	492	0	576	39	7	
10	0	0	0	0	508	494	0	566	39	7	
11	0	0	0	0	506	494	0	558	38	7	
12	0	0	0	0	500	497	0	546	39	7	
13	0	0	0	0	509	503	0	529	38	6	
14	0	0	0	0	514	510	0	516	39	6	
15	0	0	0	0	503	514	0	510	39	6	
0	0	0	0	0	511	515	0	501	39	7	
1	0	0	0	0	512	517	0	516	39	7	
2	0	0	0	0	510	524	0	534	39	7	
3	0	0	0	0	512	537	0	540	38	7	
4	0	0	0	0	503	554	0	541	39	7	
5	0	0	0	0	510	570	0	531	38	6	
6	0	0	0	0	510	588	0	520	39	6	
7	0	0	0	0	514	607	0	525	39	6	
8	0	0	0	0	503	627	0	532	39	6	
9	0	0	0	0	500	651	0	528	39	7	
10	0	0	0	0	504	678	0	527	38	7	
11	0	0	0	0	508	700	0	520	38	7	
12	0	0	0	0	501	723	0	513	38	7	
13	0	0	0	0	511	747	0	505	39	6	
14	0	0	0	0	504	768	0	499	39	6	
15	0	0	0	0	513	784	0	507	39	6	
0	0	0	0	0	504	801	0	488	39	6	
1	0	0	0	0	510	817	0	485	38	7	
2	0	0	0	0	508	831	0	483	39	7	
3	0	0	0	0	507	845	0	483	38	7	
4	0	0	0	0	507	857	0	482	39	7	
5	0	0	0	0	505	866	0	480	39	7	
6	0	0	0	0	509	867	0	479	38	6	
7	0	0	0	0	509	861	0	478	39	6	
8	0	0	0	0	509	851	0	475	39	6	
9	0	0	0	0	514	838	0	470	39	7	
10	0	0	0	0	511	820	0	469	39	7	
11	0	0	0	0	502	801	0	472	38	7	
12	0	0	0	0	502	779	0	476	39	7	
13	0	0	0	0	504	752	0	476	38	7	
14	0	0	0	0	508	724	0	477	39	6	
15	0	0	0	0	509	698	0	476	39	6	
0	0	0	0	0	513	671	0	473	38	6	
1	0	0	0	0	504	645	0	471	39	6	
2	0	0	0	0	509	621	0	475	39	7	
3	0	0	0	0	501	591	0	478	38	7	
4	0	0	0	0	502	558	0	482	38	7	
5	0	0	0	0	510	526	0	483	38	7	
6	0	0	0	0	511	493	0	495	38	6	
7	0	0	0	0	513	461	0	519	39	6	
8	0	0	0	0	506	429	0	527	38	6	
9	0	0	0	0	504	402	0	543	38	6	
10	0	0	0	0	505	384	0	556	39	7	
11	0	0	0	0	505	378	0	559	38	7	
12	0	0	0	0	507	374	0	573	38	7	
13	0	0	0	0	506	373	0	567	39	7	
14	0	0	0	0	509	374	0	573	38	7	
15	0	0	0	0	504	375	0	575	39	6	
0	0	0	0	0	502	376	0	568	39	6	
1	0	0	0	0	508	377	0	573	39	6	
2	0	0	0	0	511	379	0	564	39	7	
3	0	0	0	0	503	383	0	559	38	7	
4	0	0	0	0	509	389	0	548	39	7	
5	0	0	0	0	509	396	0	532	39	7	
6	0	0	0	0	512	405	0	521	38	7	
7	0	0	0	0	504	414	0	513	39	6	
8	0	0	0	0	508	422	0	504	39	6	
9	0	0	0	0	511	431	0	496	38	6	
10	0	0	0	0	506	441	0	493	39	6	
11	0	0	0	0	508	448	0	493	38	7	
12	0	0	0	0	507	452	0	494	39	7	
13	0	0	0	0	506	458	0	491	39	7	
14	0	0	0	0	507	463	0	490	39	7	
15	0	0	0	0	509	465	0	497	39	6	
0	0	0	0	0	505	465	0	484	38	6	
1	0	0	0	0	508	467	0	480	39	6	
2	0	0	0	0	511	466	0	482	39	6	
3	0	0	0	0	510	467	0	484	38	7	
4	0	0	0	0	505	466	0	486	39	7	
5	0	0	0	0	506	463	0	489	39	7	
6	0	0	0	0	505	461	0	490	39	7	
7	0	0	0	0	505	461	0	490	39	7	
8	0	0	0	0	506	463	0	486	39	6	
9	0	0	0	0	508	467	0	483	39	6	
10	0	0	0	0	508	469	0	488	39	6	
11	0	0	0	0	504	470	0	489	38	7	
12	0	0	0	0	506	468	0	491	39	7	
13	0	0	0	0	511	466	0	496	38	7	
14	0	0	0	0	511	465	0	496	39	7	
15	0	0	0	0	505	464	0	497	39	7	
0	0	0	0	0	511	462	0	494	38	6	
1	0	0	0	0	504	461	0	491	39	6	
2	0	0	0	0	503	460	0	492	38	6	
3	0	0	0	0	505	459	0	493	38	6	
4	0	0	0	0	508	458	0	496	39	7	
5	0	0	0	0	509	461	0	497	39	7	
6	0	0	0	0	509	463	0	497	38	7	
7	0	0	0	0	510	464	0	496	39	7	
8	0	0	0	0	505	465	0	496	39	7	
9	0	0	0	0	509	466	0	491	38	6	
10	0	0	0	0	502	463	0	491	38	6	
11	0	0	0	0	518	462	0	499	38	6	
12	0	0	0	0	505	464	0	494	39	7	
13	0	0	0	0	507	465	0	496	39	7	
14	0	0	0	0	507	465	0	499	39	7	
15	0	0	0	0	503	467	0	496	39	7	
0	0	0	0	0	504	469	0	512	39	7	
1	0	0	0	0	511	471	0	527	38	6	
2	0	0	0	0	512	475	0	539	39	6	
3	0	0	0	0	509	476	0	560	38	6	
4	0	0	0	0	508	476	0	563	39	7	
5	0	0	0	0	508	476	0	572	39	7	
6	0	0	0	0	507	478	0	574	38	7	
7	0	0	0	0	511	483	0	572	39	7	
8	0	0	0	0	510	487	0	581	38	7	
9	0	0	0	0	507	486	0	575	39	6	
10	0	0	0	0	507	484	0	576	38	6	
11	0	0	0	0	500	483	0	574	38	6	
12	0	0	0	0	508	480	0	569	38	6	
13	0	0	0	0	507	476	0	576	38	7	
14	0	0	0	0	503	472	0	565	39	7	
15	0	0	0	0	513	471	0	569	39	7	
0	0	0	0	0	513	471	0	568	39	7	
1	0	0	0	0	506	471	0	561	39	7	
2	0	0	0	0	514	470	0	573	39	6	
3	0	0	0	0	513	469	0	559	38	6	
4	0	0	0	0	507	470	0	563	39	6	
5	0	0	0	0	511	470	0	564	39	7	
6	0	0	0	0	509	469	0	560	39	7	
7	0	0	0	0	504	470	0	568	39	7	
8	0	0	0	0	505	470	0	560	39	7	
9	0	0	0	0	507	473	0	551	38	7	
10	0	0	0	0	503	479	0	536	39	6	
11	0	0	0	0	507	487	0	523	38	6	
12	0	0	0	0	500	499	0	511	39	6	
13	0	0	0	0	511	508	0	502	39	7	
14	0	0	0	0	508	514	0	494	39	7	
15	0	0	0	0	516	517	0	488	39	7	
0	0	0	0	0	514	518	0	486	39	7	
1	0	0	0	0	507	523	0	481	39	7	
2	0	0	0	0	495	524	0	479	39	7	
3	0	0	0	0	505	522	0	480	38	6	
4	0	0	0	0	510	519	0	480	39	6	
5	0	0	0	0	514	518	0	481	39	6	
6	0	0	0	0	512	515	0	500	38	7	
7	0	0	0	0	508	513	0	481	39	7	
8	0	0	0	0	507	512	0	478	39	7	
9	0	0	0	0	508	511	0	478	38	7	
10	0	0	0	0	508	509	0	478	39	7	
11	0	0	0	0	507	507	0	480	38	6	
12	0	0	0	0	508	501	0	481	39	6	
13	0	0	0	0	506	492	0	480	38	6	
14	0	0	0	0	508	488	0	477	38	7	
15	0	0	0	0	504	491	0	474	39	7	
0	0	0	0	0	506	493	0	472	38	7	
1	0	0	0	0	502	495	0	470	39	7	
2	0	0	0	0	503	495	0	467	39	7	
3	0	0	0	0	503	500	0	469	38	6	
4	0	0	0	0	506	508	0	477	39	6	
5	0	0	0	0	513	511	0	483	39	6	
6	0	0	0	0	512	510	0	508	39	7	
7	0	0	0	0	504	509	0	519	39	7	
8	0	0	0	0	500	512	0	530	39	7	
9	0	0	0	0	516	514	0	544	39	7	
10	0	0	0	0	513	513	0	545	39	7	
11	0	0	0	0	507	514	0	558	38	7	
12	0	0	0	0	508	516	0	558	38	6	
13	0	0	0	0	507	515	0	558	39	6	
14	0	0	0	0	505	518	0	565	39	6	
15	0	0	0	0	511	523	0	557	39	7	
0	0	0	0	0	510	525	0	561	38	7	
1	0	0	0	0	506	525	0	558	39	7	
2	0	0	0	0	509	526	0	552	39	7	
3	0	0	0	0	502	524	0	537	38	7	
4	0	0	0	0	507	519	0	520	39	6	
5	0	0	0	0	508	516	0	510	39	6	
6	0	0	0	0	508	516	0	496	38	6	
7	0	0	0	0	509	515	0	488	39	7	
8	0	0	0	0	508	512	0	496	39	7	
9	0	0	0	0	508	509	0	474	38	7	
10	0	0	0	0	503	506	0	470	39	7	
11	0	0	0	0	512	504	0	470	38	7	
12	0	0	0	0	512	504	0	471	39	6	
13	0	0	0	0	503	508	0	473	39	6	
14	0	0	0	0	506	510	0	475	39	6	
15	0	0	0	0	506	510	0	474	39	7	
0	0	0	0	0	506	513	0	474	39	7	
1	0	0	0	0	509	516	0	471	39	7	
2	0	0	0	0	511	519	0	470	39	7	
3	0	0	0	0	509	520	0	474	38	7	
4	0	0	0	0	505	523	0	476	38	7	
5	0	0	0	0	512	527	0	477	39	6	
6	0	0	0	0	512	531	0	478	38	6	
7	0	0	0	0	510	533	0	476	39	6	
8	0	0	0	0	506	536	0	485	39	7	
9	0	0	0	0	505	539	0	469	39	7	
10	0	0	0	0	512	541	0	467	39	7	
11	0	0	0	0	504	543	0	467	38	7	
12	0	0	0	0	507	545	0	470	39	7	
13	0	0	0	0	500	545	0	475	39	6	
14	0	0	0	0	501	544	0	474	38	6	
15	0	0	0	0	510	542	0	493	39	6	
0	0	0	0	0	506	541	0	507	39	7	
1	0	0	0	0	516	539	0	514	39	7	
2	0	0	0	0	509	538	0	534	39	7	
3	0	0	0	0	504	537	0	540	38	7	
4	0	0	0	0	507	534	0	551	38	7	
5	0	0	0	0	507	531	0	554	39	6	
6	0	0	0	0	503	527	0	552	38	6	
7	0	0	0	0	513	523	0	560	39	6	
8	0	0	0	0	511	520	0	551	39	7	
9	0	0	0	0	510	519	0	553	39	7	
10	0	0	0	0	505	523	0	558	39	7	
11	0	0	0	0	506	532	0	556	38	7	
12	0	0	0	0	504	540	0	543	38	7	
13	0	0	0	0	507	547	0	527	39	7	
14	0	0	0	0	515	549	0	515	39	6	
15	0	0	0	0	507	547	0	515	39	6	
0	0	0	0	0	514	547	0	522	39	6	
1	0	0	0	0	507	551	0	519	38	7	
2	0	0	0	0	506	558	0	518	38	7	
3	0	0	0	0	499	566	0	509	38	7	
4	0	0	0	0	514	570	0	501	38	7	
5	0	0	0	0	504	571	0	493	39	7	
6	0	0	0	0	510	570	0	487	39	6	
7	0	0	0	0	507	569	0	482	39	6	
8	0	0	0	0	514	569	0	478	39	6	
9	0	0	0	0	508	570	0	475	38	7	
10	0	0	0	0	503	569	0	475	39	7	
11	0	0	0	0	505	570	0	475	38	7	
12	0	0	0	0	509	571	0	478	39	7	
13	0	0	0	0	506	574	0	474	39	7	
14	0	0	0	0	505	575	0	472	39	6	
15	0	0	0	0	506	575	0	478	39	6	
0	0	0	0	0	501	575	0	468	39	6	
1	0	0	0	0	505	573	0	465	39	7	
2	0	0	0	0	509	571	0	465	39	7	
3	0	0	0	0	508	570	0	468	38	7	
4	0	0	0	0	507	572	0	474	39	7	
5	0	0	0	0	512	572	0	476	38	7	
6	0	0	0	0	509	570	0	477	38	7	
7	0	0	0	0	512	569	0	477	39	6	
8	0	0	0	0	506	566	0	472	39	6	
9	0	0	0	0	509	565	0	469	39	6	
10	0	0	0	0	511	563	0	471	39	7	
11	0	0	0	0	508	560	0	471	38	7	
12	0	0	0	0	506	556	0	472	39	7	
13	0	0	0	0	511	556	0	478	38	7	
14	0	0	0	0	506	562	0	490	38	7	
15	0	0	0	0	500	572	0	517	39	6	
0	0	0	0	0	509	577	0	523	39	6	
1	0	0	0	0	504	579	0	539	39	6	
2	0	0	0	0	508	579	0	550	39	7	
3	0	0	0	0	508	582	0	542	38	7	
4	0	0	0	0	507	583	0	534	39	7	
5	0	0	0	0	510	581	0	544	39	7	
6	0	0	0	0	504	582	0	543	39	7	
7	0	0	0	0	511	582	0	547	39	6	
8	0	0	0	0	512	584	0	555	39	6	
9	0	0	0	0	504	587	0	552	39	6	
10	0	0	0	0	512	589	0	562	39	7	
11	0	0	0	0	516	590	0	562	38	7	
12	0	0	0	0	504	592	0	566	39	7	
13	0	0	0	0	507	592	0	572	39	7	
14	0	0	0	0	507	590	0	566	38	7	
15	0	0	0	0	508	585	0	571	39	7	
0	0	0	0	0	506	582	0	566	39	6	
1	0	0	0	0	506	580	0	559	39	6	
2	0	0	0	0	503	576	0	547	38	6	
3	0	0	0	0	516	569	0	533	38	7	
4	0	0	0	0	513	562	0	519	38	7	
5	0	0	0	0	512	554	0	508	39	7	
6	0	0	0	0	510	546	0	502	38	7	
7	0	0	0	0	501	541	0	495	39	7	
8	0	0	0	0	506	539	0	492	38	6	
9	0	0	0	0	508	538	0	488	38	6	
10	0	0	0	0	509	539	0	486	39	6	
11	0	0	0	0	504	542	0	486	38	7	
12	0	0	0	0	508	545	0	488	38	7	
13	0	0	0	0	505	546	0	491	38	7	
14	0	0	0	0	511	547	0	492	38	7	
15	0	0	0	0	509	547	0	490	39	7	
0	0	0	0	0	506	547	0	487	39	6	
1	0	0	0	0	507	549	0	483	39	6	
2	0	0	0	0	510	551	0	486	38	6	
3	0	0	0	0	507	553	0	487	38	7	
4	0	0	0	0	502	552	0	491	38	7	
5	0	0	0	0	506	550	0	491	38	7	
6	0	0	0	0	507	545	0	492	39	7	
7	0	0	0	0	504	543	0	498	39	7	
8	0	0	0	0	502	542	0	492	39	7	
9	0	0	0	0	514	540	0	488	39	6	
10	0	0	0	0	505	539	0	490	39	6	
11	0	0	0	0	505	536	0	491	38	6	
12	0	0	0	0	503	531	0	494	39	7	
13	0	0	0	0	508	527	0	498	39	7	
14	0	0	0	0	516	521	0	519	38	7	
15	0	0	0	0	509	515	0	535	39	7	
0	0	0	0	0	508	510	0	541	39	7	
1	0	0	0	0	507	504	0	561	39	6	
2	0	0	0	0	510	498	0	563	39	6	
3	0	0	0	0	505	494	0	575	38	6	
4	0	0	0	0	508	492	0	584	39	7	
5	0	0	0	0	509	489	0	572	39	7	
6	0	0	0	0	507	487	0	561	38	7	
7	0	0	0	0	505	483	0	582	39	7	
8	0	0	0	0	507	477	0	566	39	7	
9	0	0	0	0	507	475	0	567	39	6	
10	0	0	0	0	506	476	0	577	39	6	
11	0	0	0	0	504	475	0	574	38	6	
12	0	0	0	0	507	471	0	586	38	7	
13	0	0	0	0	517	467	0	583	38	7	
14	0	0	0	0	513	465	0	583	38	7	
15	0	0	0	0	501	466	0	598	39	7	
0	0	0	0	0	510	466	0	578	38	7	
1	0	0	0	0	512	466	0	568	38	7	
2	0	0	0	0	505	462	0	553	39	6	
3	0	0	0	0	498	455	0	537	38	6	
4	0	0	0	0	506	451	0	527	39	6	
5	0	0	0	0	508	448	0	519	38	7	
6	0	0	0	0	505	445	0	512	39	7	
7	0	0	0	0	503	442	0	508	39	7	
8	0	0	0	0	502	443	0	500	38	7	
9	0	0	0	0	512	445	0	494	38	7	
10	0	0	0	0	509	446	0	498	39	6	
11	0	0	0	0	498	444	0	496	38	6	
12	0	0	0	0	507	443	0	497	39	6	
13	0	0	0	0	514	441	0	501	38	7	
14	0	0	0	0	510	438	0	501	39	6	
15	0	0	0	0	507	437	0	504	39	7	
0	0	0	0	0	505	438	0	499	38	7	
1	0	0	0	0	510	435	0	496	38	7	
2	0	0	0	0	511	430	0	498	38	7	
3	0	0	0	0	502	427	0	497	38	6	
4	0	0	0	0	507	427	0	500	39	6	
5	0	0	0	0	514	431	0	503	39	7	
6	0	0	0	0	507	438	0	503	39	7	
7	0	0	0	0	506	439	0	502	39	7	
8	0	0	0	0	502	440	0	499	39	7	
9	0	0	0	0	511	440	0	497	39	7	
10	0	0	0	0	505	435	0	499	39	7	
11	0	0	0	0	515	432	0	501	38	6	
12	0	0	0	0	510	430	0	502	39	6	
13	0	0	0	0	511	430	0	512	38	6	
14	0	0	0	0	508	430	0	538	39	7	
15	0	0	0	0	509	429	0	544	39	7	
0	0	0	0	0	508	422	0	559	39	7	
1	0	0	0	0	507	416	0	568	39	7	
2	0	0	0	0	505	412	0	570	39	7	
3	0	0	0	0	496	414	0	583	38	6	
4	0	0	0	0	505	417	0	577	39	6	
5	0	0	0	0	509	423	0	581	38	6	
6	0	0	0	0	504	429	0	585	39	7	
7	0	0	0	0	512	435	0	579	39	7	
8	0	0	0	0	512	440	0	583	39	7	
9	0	0	0	0	513	444	0	571	39	7	
10	0	0	0	0	505	443	0	561	38	7	
11	0	0	0	0	507	441	0	549	38	7	
12	0	0	0	0	505	439	0	533	39	6	
13	0	0	0	0	506	436	0	521	38	6	
14	0	0	0	0	515	437	0	514	38	7	
15	0	0	0	0	510	439	0	504	39	7	
0	0	0	0	0	508	441	0	497	38	7	
1	0	0	0	0	505	443	0	489	39	7	
2	0	0	0	0	511	443	0	487	39	7	
3	0	0	0	0	511	442	0	487	38	7	
4	0	0	0	0	508	441	0	484	39	6	
5	0	0	0	0	505	440	0	483	38	6	
6	0	0	0	0	511	438	0	483	38	6	
7	0	0	0	0	517	437	0	482	39	7	
8	0	0	0	0	510	432	0	475	38	7	
9	0	0	0	0	499	426	0	471	39	7	
10	0	0	0	0	508	427	0	470	38	7	
11	0	0	0	0	504	432	0	474	38	7	
12	0	0	0	0	510	438	0	472	38	6	
13	0	0	0	0	510	442	0	473	38	6	
14	0	0	0	0	507	442	0	475	38	6	
15	0	0	0	0	504	440	0	475	39	7	
0	0	0	0	0	504	437	0	474	39	7	
1	0	0	0	0	499	438	0	469	39	7	
2	0	0	0	0	507	444	0	470	38	7	
3	0	0	0	0	505	448	0	472	38	7	
4	0	0	0	0	506	448	0	477	38	7	
5	0	0	0	0	506	448	0	478	38	6	
6	0	0	0	0	504	447	0	481	38	6	
7	0	0	0	0	511	444	0	480	39	7	
8	0	0	0	0	511	443	0	480	39	7	
9	0	0	0	0	503	441	0	476	38	7	
10	0	0	0	0	508	438	0	476	39	7	
11	0	0	0	0	510	432	0	478	38	7	
12	0	0	0	0	508	427	0	480	38	7	
13	0	0	0	0	511	428	0	483	38	6	
14	0	0	0	0	509	431	0	481	38	6	
15	0	0	0	0	499	438	0	478	39	6	
0	0	0	0	0	503	447	0	475	38	7	
1	0	0	0	0	508	455	0	471	39	7	
2	0	0	0	0	509	460	0	472	39	7	
3	0	0	0	0	506	463	0	471	38	7	
4	0	0	0	0	502	465	0	475	39	7	
5	0	0	0	0	506	468	0	477	39	6	
6	0	0	0	0	512	470	0	478	39	6	
7	0	0	0	0	512	475	0	476	39	6	
8	0	0	0	0	503	478	0	471	39	7	
9	0	0	0	0	503	480	0	469	39	6	
10	0	0	0	0	510	482	0	470	38	7	
11	0	0	0	0	515	481	0	475	38	7	
12	0	0	0	0	510	480	0	498	39	7	
13	0	0	0	0	508	480	0	519	39	7	
14	0	0	0	0	512	477	0	528	39	6	
15	0	0	0	0	512	472	0	547	39	6	
0	0	0	0	0	504	469	0	547	39	7	
1	0	0	0	0	499	471	0	555	39	7	
2	0	0	0	0	508	472	0	560	39	7	
3	0	0	0	0	511	473	0	556	38	7	
4	0	0	0	0	509	474	0	568	39	7	
5	0	0	0	0	511	473	0	583	38	7	
6	0	0	0	0	508	471	0	572	38	6	
7	0	0	0	0	507	469	0	568	39	6	
8	0	0	0	0	508	467	0	560	39	6	
9	0	0	0	0	501	469	0	564	39	7	
10	0	0	0	0	512	470	0	557	39	7	
11	0	0	0	0	512	470	0	562	38	7	
12	0	0	0	0	511	468	0	566	38	7	
13	0	0	0	0	503	467	0	564	38	7	
14	0	0	0	0	510	468	0	570	39	6	
15	0	0	0	0	509	471	0	558	39	6	
0	0	0	0	0	510	473	0	563	38	6	
1	0	0	0	0	505	474	0	558	39	7	
2	0	0	0	0	502	474	0	550	39	6	
3	0	0	0	0	507	472	0	542	38	7	
4	0	0	0	0	508	474	0	527	38	7	
5	0	0	0	0	503	477	0	515	38	7	
6	0	0	0	0	511	476	0	504	38	7	
7	0	0	0	0	502	473	0	496	39	6	
8	0	0	0	0	512	472	0	493	38	6	
9	0	0	0	0	508	474	0	483	38	7	
10	0	0	0	0	510	481	0	480	38	6	
11	0	0	0	0	504	488	0	481	38	7	
12	0	0	0	0	511	492	0	481	39	7	
13	0	0	0	0	503	490	0	482	39	7	
14	0	0	0	0	506	489	0	483	39	7	
15	0	0	0	0	510	489	0	480	39	6	
0	0	0	0	0	508	490	0	481	38	6	
1	0	0	0	0	510	491	0	476	39	6	
2	0	0	0	0	507	489	0	479	38	7	
3	0	0	0	0	497	487	0	482	38	7	
4	0	0	0	0	505	482	0	486	38	7	
5	0	0	0	0	504	481	0	492	38	7	
6	0	0	0	0	520	483	0	492	39	7	
7	0	0	0	0	515	485	0	494	39	6	
8	0	0	0	0	502	485	0	494	39	6	
9	0	0	0	0	509	484	0	490	39	6	
10	0	0	0	0	510	480	0	489	39	7	
11	0	0	0	0	510	476	0	492	38	6	
12	0	0	0	0	507	473	0	496	38	7	
13	0	0	0	0	505	474	0	500	39	7	
14	0	0	0	0	511	477	0	499	39	7	
15	0	0	0	0	504	479	0	515	39	6	
0	0	0	0	0	504	481	0	535	39	6	
1	0	0	0	0	509	481	0	542	39	6	
2	0	0	0	0	506	480	0	565	39	6	
3	0	0	0	0	507	478	0	568	38	6	
4	0	0	0	0	511	476	0	574	39	7	
5	0	0	0	0	508	477	0	586	39	7	
6	0	0	0	0	504	481	0	582	39	7	
7	0	0	0	0	507	487	0	589	39	7	
8	0	0	0	0	512	491	0	579	38	6	
9	0	0	0	0	509	493	0	574	39	6	
10	0	0	0	0	511	495	0	582	39	6	
11	0	0	0	0	505	499	0	577	38	7	
12	0	0	0	0	511	504	0	569	39	7	
13	0	0	0	0	511	507	0	554	38	7	
14	0	0	0	0	512	507	0	538	38	7	
15	0	0	0	0	514	503	0	534	39	7	
0	0	0	0	0	505	500	0	547	39	6	
1	0	0	0	0	504	497	0	543	39	6	
2	0	0	0	0	511	497	0	545	39	6	
3	0	0	0	0	507	502	0	539	38	7	
4	0	0	0	0	504	507	0	531	39	6	
5	0	0	0	0	512	512	0	526	38	7	
6	0	0	0	0	509	512	0	516	38	7	
7	0	0	0	0	503	508	0	508	39	7	
8	0	0	0	0	508	504	0	502	38	7	
9	0	0	0	0	508	503	0	496	39	6	
10	0	0	0	0	507	503	0	494	39	6	
11	0	0	0	0	505	504	0	495	38	6	
12	0	0	0	0	510	508	0	495	39	6	
13	0	0	0	0	502	510	0	497	38	7	
14	0	0	0	0	510	507	0	496	39	7	
15	0	0	0	0	504	505	0	497	39	7	
0	0	0	0	0	506	505	0	495	39	7	
1	0	0	0	0	516	504	0	490	38	6	
2	0	0	0	0	506	505	0	491	38	6	
3	0	0	0	0	511	507	0	492	38	6	
4	0	0	0	0	505	508	0	494	39	7	
5	0	0	0	0	505	508	0	497	38	6	
6	0	0	0	0	507	508	0	497	38	7	
7	0	0	0	0	505	507	0	496	39	7	
8	0	0	0	0	502	507	0	493	39	7	
9	0	0	0	0	503	507	0	489	38	6	
10	0	0	0	0	515	508	0	489	38	6	
11	0	0	0	0	502	507	0	493	38	6	
12	0	0	0	0	512	506	0	495	38	7	
13	0	0	0	0	512	503	0	496	39	6	
14	0	0	0	0	508	502	0	499	38	7	
15	0	0	0	0	508	500	0	499	39	7	
0	0	0	0	0	507	498	0	499	39	7	
1	0	0	0	0	504	497	0	496	39	6	
2	0	0	0	0	507	497	0	497	39	6	
3	0	0	0	0	511	496	0	501	38	6	
4	0	0	0	0	511	497	0	502	39	6	
5	0	0	0	0	507	498	0	503	39	6	
6	0	0	0	0	504	498	0	502	38	7	
7	0	0	0	0	514	496	0	500	39	7	
8	0	0	0	0	514	497	0	500	39	7	
9	0	0	0	0	504	503	0	494	39	7	
10	0	0	0	0	508	509	0	494	39	6	
11	0	0	0	0	505	508	0	512	38	6	
12	0	0	0	0	503	505	0	540	39	6	
13	0	0	0	0	507	504	0	551	38	7	
14	0	0	0	0	510	505	0	573	39	6	
15	0	0	0	0	505	507	0	577	39	7	
0	0	0	0	0	511	505	0	579	38	7	
1	0	0	0	0	505	504	0	584	39	7	
2	0	0	0	0	503	501	0	577	39	6	
3	0	0	0	0	506	502	0	589	38	6	
4	0	0	0	0	510	505	0	589	39	6	
5	0	0	0	0	508	507	0	590	39	7	
6	0	0	0	0	513	507	0	601	39	6	
7	0	0	0	0	504	505	0	586	39	7	
8	0	0	0	0	512	500	0	592	39	7	
9	0	0	0	0	503	493	0	587	39	7	
10	0	0	0	0	505	487	0	585	39	6	
11	0	0	0	0	500	486	0	596	38	6	
12	0	0	0	0	507	487	0	591	39	6	
13	0	0	0	0	513	491	0	585	39	6	
14	0	0	0	0	509	495	0	591	39	6	
15	0	0	0	0	515	493	0	589	39	7	
0	0	0	0	0	506	489	0	580	38	7	
1	0	0	0	0	505	487	0	568	38	7	
2	0	0	0	0	509	489	0	552	39	7	
3	0	0	0	0	512	493	0	538	38	6	
4	0	0	0	0	506	501	0	525	38	6	
5	0	0	0	0	504	506	0	518	39	6	
6	0	0	0	0	501	509	0	515	38	7	
7	0	0	0	0	504	512	0	511	39	6	
8	0	0	0	0	509	515	0	508	38	7	
9	0	0	0	0	513	517	0	503	39	7	
10	0	0	0	0	504	519	0	512	38	7	
11	0	0	0	0	505	519	0	546	38	6	
12	0	0	0	0	507	520	0	556	39	6	
13	0	0	0	0	501	518	0	575	39	6	
14	0	0	0	0	509	514	0	584	38	7	
15	0	0	0	0	511	512	0	582	39	6	
0	0	0	0	0	514	512	0	575	38	7	
1	0	0	0	0	507	510	0	559	38	7	
2	0	0	0	0	506	507	0	543	38	7	
3	0	0	0	0	516	508	0	542	38	7	
4	0	0	0	0	509	512	0	521	39	6	
5	0	0	0	0	511	514	0	513	39	6	
6	0	0	0	0	505	511	0	508	39	6	
7	0	0	0	0	506	505	0	503	39	6	
8	0	0	0	0	507	499	0	497	39	7	
9	0	0	0	0	502	497	0	492	39	7	
10	0	0	0	0	508	497	0	493	39	7	
11	0	0	0	0	505	497	0	495	38	7	
12	0	0	0	0	503	498	0	493	39	6	
13	0	0	0	0	511	498	0	495	38	6	
14	0	0	0	0	506	500	0	498	39	6	
15	0	0	0	0	510	500	0	495	39	7	
0	0	0	0	0	509	499	0	489	39	6	
1	0	0	0	0	510	499	0	502	39	7	
2	0	0	0	0	512	500	0	488	38	7	
3	0	0	0	0	510	500	0	491	38	7	
4	0	0	0	0	508	500	0	496	39	6	
5	0	0	0	0	512	501	0	497	39	6	
6	0	0	0	0	505	503	0	497	38	6	
7	0	0	0	0	509	508	0	498	39	7	
8	0	0	0	0	504	513	0	494	39	6	
9	0	0	0	0	506	518	0	492	39	7	
10	0	0	0	0	506	522	0	489	39	7	
11	0	0	0	0	513	522	0	490	38	7	
12	0	0	0	0	508	520	0	506	39	6	
13	0	0	0	0	509	519	0	529	39	6	
14	0	0	0	0	505	515	0	538	39	6	
15	0	0	0	0	502	511	0	556	39	6	
0	0	0	0	0	511	504	0	559	39	6	
1	0	0	0	0	508	496	0	563	39	7	
2	0	0	0	0	504	491	0	571	39	7	
3	0	0	0	0	504	494	0	566	38	7	
4	0	0	0	0	515	498	0	577	39	7	
5	0	0	0	0	511	504	0	578	39	6	
6	0	0	0	0	503	510	0	580	38	6	
7	0	0	0	0	505	510	0	582	39	6	
8	0	0	0	0	513	509	0	568	39	7	
9	0	0	0	0	501	508	0	559	39	6	
10	0	0	0	0	508	506	0	543	39	7	
11	0	0	0	0	507	508	0	528	38	7	
12	0	0	0	0	513	508	0	515	39	7	
13	0	0	0	0	511	508	0	507	38	6	
14	0	0	0	0	508	509	0	502	38	6	
15	0	0	0	0	510	512	0	498	39	6	
0	0	0	0	0	508	515	0	495	38	7	
1	0	0	0	0	499	513	0	489	39	6	
2	0	0	0	0	506	508	0	488	39	7	
3	0	0	0	0	501	507	0	487	38	7	
4	0	0	0	0	504	508	0	487	39	7	
5	0	0	0	0	510	513	0	490	38	7	
6	0	0	0	0	511	515	0	487	39	6	
7	0	0	0	0	502	515	0	486	39	6	
8	0	0	0	0	513	515	0	482	38	6	
9	0	0	0	0	512	517	0	478	39	6	
10	0	0	0	0	503	519	0	480	39	7	
11	0	0	0	0	504	521	0	480	38	7	
12	0	0	0	0	508	521	0	483	38	7	
13	0	0	0	0	507	523	0	486	38	7	
14	0	0	0	0	514	521	0	485	39	6	
15	0	0	0	0	513	521	0	486	39	6	
0	0	0	0	0	509	520	0	480	39	6	
1	0	0	0	0	502	516	0	477	38	7	
2	0	0	0	0	500	512	0	478	38	6	
3	0	0	0	0	505	510	0	480	38	7	
4	0	0	0	0	510	509	0	482	38	7	
5	0	0	0	0	511	507	0	484	39	7	
6	0	0	0	0	504	503	0	487	38	6	
7	0	0	0	0	500	500	0	490	39	6	
8	0	0	0	0	509	498	0	507	39	6	
9	0	0	0	0	504	499	0	521	39	7	
10	0	0	0	0	511	498	0	534	39	6	
11	0	0	0	0	506	496	0	552	38	7	
12	0	0	0	0	509	492	0	554	39	7	
13	0	0	0	0	508	492	0	563	39	7	
14	0	0	0	0	510	495	0	565	39	7	
15	0	0	0	0	507	497	0	563	39	6	
0	0	0	0	0	505	499	0	568	39	6	
1	0	0	0	0	509	502	0	561	39	6	
2	0	0	0	0	501	500	0	565	39	6	
3	0	0	0	0	513	503	0	564	38	6	
4	0	0	0	0	513	509	0	560	39	7	
5	0	0	0	0	505	515	0	552	39	7	
6	0	0	0	0	501	521	0	559	38	7	
7	0	0	0	0	506	524	0	555	39	6	
8	0	0	0	0	505	523	0	546	38	6	
9	0	0	0	0	508	519	0	537	39	6	
10	0	0	0	0	510	517	0	522	39	7	
11	0	0	0	0	507	517	0	509	38	6	
12	0	0	0	0	514	516	0	499	38	7	
13	0	0	0	0	508	515	0	493	38	7	
14	0	0	0	0	505	511	0	487	39	7	
15	0	0	0	0	502	508	0	488	39	6	
0	0	0	0	0	512	509	0	483	38	6	
1	0	0	0	0	512	508	0	479	39	6	
2	0	0	0	0	504	505	0	477	39	7	
3	0	0	0	0	509	502	0	478	38	6	
4	0	0	0	0	504	498	0	479	39	7	
5	0	0	0	0	502	492	0	481	39	7	
6	0	0	0	0	508	487	0	482	39	7	
7	0	0	0	0	501	487	0	483	39	6	
8	0	0	0	0	512	489	0	479	39	6	
9	0	0	0	0	507	492	0	479	39	6	
10	0	0	0	0	506	493	0	478	39	6	
11	0	0	0	0	512	490	0	479	38	6	
12	0	0	0	0	499	491	0	483	38	6	
13	0	0	0	0	509	495	0	485	39	7	
14	0	0	0	0	510	498	0	490	39	7	
15	0	0	0	0	512	504	0	487	39	7	
0	0	0	0	0	512	511	0	483	39	6	
1	0	0	0	0	510	518	0	485	38	6	
2	0	0	0	0	508	522	0	484	39	6	
3	0	0	0	0	505	526	0	487	38	6	
4	0	0	0	0	507	527	0	489	39	6	
5	0	0	0	0	507	529	0	490	39	7	
6	0	0	0	0	515	530	0	493	38	7	
7	0	0	0	0	510	529	0	489	39	7	
8	0	0	0	0	508	526	0	486	39	6	
9	0	0	0	0	507	523	0	482	38	6	
10	0	0	0	0	503	521	0	484	39	6	
11	0	0	0	0	508	522	0	488	38	6	
12	0	0	0	0	500	523	0	489	39	6	
13	0	0	0	0	506	524	0	492	38	6	
14	0	0	0	0	508	522	0	497	38	7	
15	0	0	0	0	508	518	0	491	39	7	
0	0	0	0	0	511	513	0	488	39	6	
1	0	0	0	0	505	510	0	501	39	6	
2	0	0	0	0	507	511	0	489	39	6	
3	0	0	0	0	513	515	0	490	38	6	
4	0	0	0	0	507	515	0	493	39	6	
5	0	0	0	0	507	513	0	495	38	6	
6	0	0	0	0	507	512	0	498	39	7	
7	0	0	0	0	505	511	0	495	39	7	
8	0	0	0	0	507	511	0	491	39	6	
9	0	0	0	0	508	513	0	487	39	6	
10	0	0	0	0	504	514	0	488	39	6	
11	0	0	0	0	508	512	0	492	38	6	
12	0	0	0	0	505	511	0	493	39	6	
13	0	0	0	0	502	514	0	495	38	6	
14	0	0	0	0	505	519	0	496	38	7	
15	0	0	0	0	511	520	0	494	39	7	
0	0	0	0	0	511	520	0	492	39	7	
1	0	0	0	0	509	517	0	489	39	6	
2	0	0	0	0	509	513	0	489	39	6	
3	0	0	0	0	511	515	0	499	38	6	
4	0	0	0	0	507	516	0	493	38	6	
5	0	0	0	0	512	515	0	503	38	6	
6	0	0	0	0	515	512	0	531	38	6	
7	0	0	0	0	502	510	0	542	39	7	
8	0	0	0	0	507	508	0	560	38	7	
9	0	0	0	0	509	504	0	565	38	6	
10	0	0	0	0	507	501	0	566	39	6	
11	0	0	0	0	509	501	0	580	38	6	
12	0	0	0	0	504	504	0	578	39	6	
13	0	0	0	0	506	508	0	582	38	6	
14	0	0	0	0	514	512	0	581	38	6	
15	0	0	0	0	514	516	0	574	39	7	
0	0	0	0	0	499	516	0	582	39	7	
1	0	0	0	0	507	515	0	569	39	6	
2	0	0	0	0	504	513	0	572	39	6	
3	0	0	0	0	513	512	0	576	38	6	
4	0	0	0	0	507	506	0	574	39	6	
5	0	0	0	0	507	498	0	583	39	6	
6	0	0	0	0	506	492	0	574	39	6	
7	0	0	0	0	509	489	0	575	39	6	
8	0	0	0	0	504	490	0	576	38	7	
9	0	0	0	0	510	492	0	569	39	7	
10	0	0	0	0	510	492	0	578	39	6	
11	0	0	0	0	503	488	0	573	38	6	
12	0	0	0	0	510	484	0	575	38	6	
13	0	0	0	0	508	479	0	575	38	6	
14	0	0	0	0	505	477	0	566	38	6	
15	0	0	0	0	508	476	0	570	39	6	
0	0	0	0	0	506	476	0	560	39	7	
1	0	0	0	0	508	478	0	561	39	7	
2	0	0	0	0	505	481	0	566	39	6	
3	0	0	0	0	506	485	0	563	38	6	
4	0	0	0	0	507	491	0	555	38	6	
5	0	0	0	0	508	497	0	540	39	6	
6	0	0	0	0	510	504	0	527	38	6	
7	0	0	0	0	509	513	0	516	39	6	
8	0	0	0	0	507	522	0	509	39	6	
9	0	0	0	0	504	529	0	498	39	7	
10	0	0	0	0	503	534	0	494	39	7	
11	0	0	0	0	512	534	0	495	38	6	
12	0	0	0	0	509	533	0	493	39	6	
13	0	0	0	0	511	533	0	493	39	6	
14	0	0	0	0	512	533	0	507	38	6	
15	0	0	0	0	510	532	0	492	39	6	
0	0	0	0	0	518	529	0	489	39	6	
1	0	0	0	0	513	525	0	489	39	7	
2	0	0	0	0	511	522	0	488	39	7	
3	0	0	0	0	497	519	0	494	38	6	
4	0	0	0	0	495	516	0	494	39	6	
5	0	0	0	0	513	513	0	497	39	6	
6	0	0	0	0	511	512	0	498	38	6	
7	0	0	0	0	509	515	0	495	39	6	
8	0	0	0	0	503	517	0	493	39	6	
9	0	0	0	0	503	515	0	492	39	7	
10	0	0	0	0	508	509	0	488	39	7	
11	0	0	0	0	510	505	0	490	38	6	
12	0	0	0	0	502	504	0	492	39	6	
13	0	0	0	0	503	506	0	494	39	6	
14	0	0	0	0	508	510	0	493	38	6	
15	0	0	0	0	505	513	0	491	39	6	
0	0	0	0	0	511	517	0	503	38	6	
1	0	0	0	0	505	520	0	523	38	7	
2	0	0	0	0	508	522	0	528	38	7	
3	0	0	0	0	510	524	0	549	38	7	
4	0	0	0	0	504	525	0	560	39	6	
5	0	0	0	0	506	527	0	566	39	6	
6	0	0	0	0	506	525	0	573	39	6	
7	0	0	0	0	509	525	0	567	39	6	
8	0	0	0	0	508	527	0	574	38	6	
9	0	0	0	0	515	529	0	569	39	6	
10	0	0	0	0	511	528	0	568	39	7	
11	0	0	0	0	503	528	0	575	38	7	
12	0	0	0	0	512	528	0	577	39	6	
13	0	0	0	0	505	527	0	562	38	6	
14	0	0	0	0	504	526	0	566	39	6	
15	0	0	0	0	513	527	0	563	39	6	
0	0	0	0	0	507	530	0	552	39	6	
1	0	0	0	0	504	530	0	541	39	6	
2	0	0	0	0	509	528	0	527	38	7	
3	0	0	0	0	505	528	0	513	38	7	
4	0	0	0	0	506	526	0	503	38	7	
5	0	0	0	0	510	521	0	494	38	6	
6	0	0	0	0	512	518	0	491	39	6	
7	0	0	0	0	508	517	0	497	39	6	
8	0	0	0	0	505	515	0	483	39	6	
9	0	0	0	0	509	514	0	479	39	6	
10	0	0	0	0	509	513	0	476	39	7	
11	0	0	0	0	512	507	0	476	38	7	
12	0	0	0	0	505	501	0	480	39	7	
13	0	0	0	0	505	497	0	479	39	6	
14	0	0	0	0	507	496	0	478	39	6	
15	0	0	0	0	503	500	0	491	39	6	
0	0	0	0	0	510	508	0	473	39	6	
1	0	0	0	0	504	513	0	469	39	6	
2	0	0	0	0	509	513	0	468	39	7	
3	0	0	0	0	518	512	0	470	38	7	
4	0	0	0	0	505	514	0	475	39	7	
5	0	0	0	0	502	515	0	476	39	6	
6	0	0	0	0	514	518	0	477	39	6	
7	0	0	0	0	512	520	0	478	39	6	
8	0	0	0	0	504	523	0	476	39	6	
9	0	0	0	0	508	527	0	475	39	6	
10	0	0	0	0	504	530	0	472	39	6	
11	0	0	0	0	508	531	0	473	38	7	
12	0	0	0	0	512	529	0	474	38	7	
13	0	0	0	0	509	527	0	475	38	7	
14	0	0	0	0	505	525	0	492	39	6	
15	0	0	0	0	505	524	0	480	39	6	
0	0	0	0	0	511	522	0	500	38	6	
1	0	0	0	0	503	516	0	512	39	6	
2	0	0	0	0	499	511	0	525	38	6	
3	0	0	0	0	518	507	0	542	38	7	
4	0	0	0	0	507	503	0	537	38	7	
5	0	0	0	0	509	496	0	547	38	7	
6	0	0	0	0	509	495	0	544	38	6	
7	0	0	0	0	509	497	0	542	39	6	
8	0	0	0	0	506	501	0	548	38	6	
9	0	0	0	0	508	508	0	539	39	6	
10	0	0	0	0	512	513	0	544	39	6	
11	0	0	0	0	504	516	0	542	38	6	
12	0	0	0	0	504	514	0	536	39	7	
13	0	0	0	0	512	510	0	525	39	7	
14	0	0	0	0	508	510	0	510	38	6	
15	0	0	0	0	510	512	0	497	39	6	
0	0	0	0	0	505	510	0	487	39	6	
1	0	0	0	0	504	508	0	480	38	6	
2	0	0	0	0	505	508	0	475	39	6	
3	0	0	0	0	505	507	0	470	38	6	
4	0	0	0	0	504	508	0	467	38	7	
5	0	0	0	0	512	506	0	464	39	7	
6	0	0	0	0	508	504	0	461	38	7	
7	0	0	0	0	506	502	0	457	39	6	
8	0	0	0	0	508	499	0	453	38	6	
9	0	0	0	0	510	496	0	450	38	6	
10	0	0	0	0	510	493	0	453	38	6	
11	0	0	0	0	507	490	0	452	38	6	
12	0	0	0	0	511	488	0	455	39	6	
13	0	0	0	0	501	492	0	457	39	7	
14	0	0	0	0	510	497	0	460	39	7	
15	0	0	0	0	509	498	0	460	39	6	
0	0	0	0	0	508	496	0	456	39	6	
1	0	0	0	0	506	495	0	454	39	6	
2	0	0	0	0	508	494	0	456	39	6	
3	0	0	0	0	507	492	0	458	38	6	
4	0	0	0	0	505	492	0	459	39	6	
5	0	0	0	0	502	495	0	461	39	7	
6	0	0	0	0	508	497	0	463	39	7	
7	0	0	0	0	511	502	0	467	39	6	
8	0	0	0	0	510	507	0	464	39	6	
9	0	0	0	0	508	508	0	483	39	6	
10	0	0	0	0	497	509	0	507	39	6	
11	0	0	0	0	511	508	0	520	38	6	
12	0	0	0	0	505	508	0	540	39	6	
13	0	0	0	0	508	508	0	540	39	7	
14	0	0	0	0	506	508	0	549	39	7	
15	0	0	0	0	505	507	0	551	39	7	
0	0	0	0	0	508	504	0	543	39	6	
1	0	0	0	0	504	504	0	552	39	6	
2	0	0	0	0	508	502	0	548	39	6	
3	0	0	0	0	510	501	0	552	38	6	
4	0	0	0	0	512	502	0	554	39	6	
5	0	0	0	0	508	504	0	546	39	6	
6	0	0	0	0	509	501	0	538	38	7	
7	0	0	0	0	511	497	0	547	39	7	
8	0	0	0	0	508	490	0	539	39	6	
9	0	0	0	0	509	483	0	531	39	6	
10	0	0	0	0	506	480	0	520	39	6	
11	0	0	0	0	507	479	0	508	38	6	
12	0	0	0	0	510	480	0	497	39	6	
13	0	0	0	0	508	481	0	488	39	6	
14	0	0	0	0	506	481	0	481	38	7	
15	0	0	0	0	505	483	0	476	39	7	
0	0	0	0	0	504	483	0	473	38	7	
1	0	0	0	0	502	486	0	470	38	6	
2	0	0	0	0	513	491	0	467	38	6	
3	0	0	0	0	506	493	0	467	38	6	
4	0	0	0	0	508	490	0	469	39	6	
5	0	0	0	0	507	485	0	469	39	6	
6	0	0	0	0	508	482	0	472	39	7	
7	0	0	0	0	505	483	0	465	39	7	
8	0	0	0	0	499	485	0	462	38	6	
9	0	0	0	0	506	487	0	460	38	6	
10	0	0	0	0	509	490	0	460	38	6	
11	0	0	0	0	513	492	0	463	38	6	
12	0	0	0	0	507	491	0	464	38	6	
13	0	0	0	0	504	490	0	466	38	6	
14	0	0	0	0	504	496	0	467	39	6	
15	0	0	0	0	510	507	0	467	39	7	
0	0	0	0	0	506	518	0	463	38	7	
1	0	0	0	0	509	531	0	459	38	6	
2	0	0	0	0	499	551	0	460	38	6	
3	0	0	0	0	508	572	0	461	38	6	
4	0	0	0	0	510	589	0	462	38	6	
5	0	0	0	0	509	608	0	466	39	6	
6	0	0	0	0	501	625	0	487	38	6	
7	0	0	0	0	511	643	0	505	39	7	
8	0	0	0	0	513	661	0	513	39	7	
9	0	0	0	0	507	679	0	531	39	6	
10	0	0	0	0	499	700	0	536	39	6	
11	0	0	0	0	508	726	0	543	38	6	
12	0	0	0	0	507	752	0	550	39	6	
13	0	0	0	0	511	775	0	549	39	6	
14	0	0	0	0	507	794	0	558	39	6	
15	0	0	0	0	506	809	0	553	39	7	
0	0	0	0	0	508	825	0	549	39	7	
1	0	0	0	0	507	839	0	548	39	7	
2	0	0	0	0	506	848	0	543	39	6	
3	0	0	0	0	507	853	0	534	38	6	
4	0	0	0	0	504	851	0	519	39	6	
5	0	0	0	0	510	848	0	506	39	6	
6	0	0	0	0	512	844	0	497	38	6	
7	0	0	0	0	510	832	0	489	39	6	
8	0	0	0	0	506	816	0	484	38	7	
9	0	0	0	0	511	797	0	480	39	7	
10	0	0	0	0	518	775	0	473	38	6	
11	0	0	0	0	511	752	0	473	38	6	
12	0	0	0	0	507	728	0	473	39	6	
13	0	0	0	0	503	707	0	476	39	6	
14	0	0	0	0	505	683	0	478	39	6	
15	0	0	0	0	510	658	0	476	39	6	
0	0	0	0	0	507	633	0	473	38	7	
1	0	0	0	0	505	604	0	475	39	7	
2	0	0	0	0	512	574	0	472	39	6	
3	0	0	0	0	508	542	0	473	38	6	
4	0	0	0	0	507	512	0	475	38	6	
5	0	0	0	0	504	480	0	477	38	6	
6	0	0	0	0	505	449	0	488	39	6	
7	0	0	0	0	505	424	0	481	39	6	
8	0	0	0	0	508	407	0	478	39	6	
9	0	0	0	0	512	392	0	474	38	7	
10	0	0	0	0	505	380	0	474	38	6	
11	0	0	0	0	509	371	0	480	38	6	
12	0	0	0	0	506	370	0	479	38	6	
13	0	0	0	0	511	373	0	480	39	6	
14	0	0	0	0	501	376	0	481	39	6	
15	0	0	0	0	511	377	0	495	39	6	
0	0	0	0	0	503	379	0	516	39	6	
1	0	0	0	0	510	380	0	520	39	7	
2	0	0	0	0	507	380	0	536	39	6	
3	0	0	0	0	505	379	0	544	38	6	
4	0	0	0	0	511	384	0	548	38	6	
5	0	0	0	0	511	390	0	560	39	6	
6	0	0	0	0	504	397	0	559	38	6	
7	0	0	0	0	504	407	0	565	39	6	
8	0	0	0	0	512	412	0	556	39	6	
9	0	0	0	0	503	418	0	552	39	7	
10	0	0	0	0	503	427	0	558	39	7	
11	0	0	0	0	506	432	0	552	38	6	
12	0	0	0	0	511	436	0	547	39	6	
13	0	0	0	0	507	439	0	529	38	6	
14	0	0	0	0	513	440	0	515	39	6	
15	0	0	0	0	512	442	0	504	39	6	
0	0	0	0	0	503	447	0	493	38	6	
1	0	0	0	0	510	450	0	482	39	6	
2	0	0	0	0	499	449	0	477	39	7	
3	0	0	0	0	507	446	0	474	38	7	
4	0	0	0	0	506	443	0	476	39	6	
5	0	0	0	0	503	444	0	475	39	6	
6	0	0	0	0	508	451	0	474	39	6	
7	0	0	0	0	514	456	0	472	39	6	
8	0	0	0	0	512	458	0	467	39	6	
9	0	0	0	0	508	456	0	468	39	6	
10	0	0	0	0	510	452	0	467	39	7	
11	0	0	0	0	500	448	0	470	38	7	
12	0	0	0	0	506	443	0	473	39	6	
13	0	0	0	0	512	441	0	476	39	6	
14	0	0	0	0	504	440	0	480	39	6	
15	0	0	0	0	505	438	0	478	39	6	
0	0	0	0	0	508	438	0	473	39	6	
1	0	0	0	0	514	439	0	478	39	6	
2	0	0	0	0	502	441	0	470	39	7	
3	0	0	0	0	505	446	0	473	38	7	
4	0	0	0	0	510	451	0	476	39	6	
5	0	0	0	0	510	455	0	476	38	6	
6	0	0	0	0	504	458	0	478	39	6	
7	0	0	0	0	505	460	0	476	39	6	
8	0	0	0	0	505	459	0	473	38	6	
9	0	0	0	0	501	455	0	473	39	6	
10	0	0	0	0	511	454	0	472	39	6	
11	0	0	0	0	512	451	0	472	38	7	
12	0	0	0	0	510	449	0	474	38	7	
13	0	0	0	0	512	449	0	475	39	6	
14	0	0	0	0	506	455	0	477	38	6	
15	0	0	0	0	512	463	0	477	39	6	
0	0	0	0	0	500	468	0	476	38	6	
1	0	0	0	0	505	472	0	473	38	6	
2	0	0	0	0	510	473	0	474	38	6	
3	0	0	0	0	508	475	0	476	38	7	
4	0	0	0	0	506	477	0	481	39	7	
5	0	0	0	0	507	477	0	481	39	6	
6	0	0	0	0	506	478	0	481	38	6	
7	0	0	0	0	506	476	0	480	39	6	
8	0	0	0	0	512	471	0	479	38	6	
9	0	0	0	0	514	467	0	475	38	6	
10	0	0	0	0	509	468	0	476	39	6	
11	0	0	0	0	505	469	0	478	38	7	
12	0	0	0	0	502	472	0	482	38	7	
13	0	0	0	0	508	476	0	482	39	6	
14	0	0	0	0	505	480	0	482	38	6	
15	0	0	0	0	507	482	0	479	39	6	
0	0	0	0	0	504	485	0	492	39	6	
1	0	0	0	0	508	483	0	509	38	6	
2	0	0	0	0	511	479	0	517	39	6	
3	0	0	0	0	510	476	0	538	38	7	
4	0	0	0	0	506	478	0	545	39	7	
5	0	0	0	0	512	485	0	551	39	7	
6	0	0	0	0	506	491	0	563	39	6	
7	0	0	0	0	510	491	0	559	39	6	
8	0	0	0	0	506	489	0	566	38	6	
9	0	0	0	0	509	489	0	559	39	6	
10	0	0	0	0	505	488	0	558	39	6	
11	0	0	0	0	505	484	0	566	38	6	
12	0	0	0	0	506	479	0	568	39	7	
13	0	0	0	0	508	476	0	571	39	7	
14	0	0	0	0	506	479	0	563	39	6	
15	0	0	0	0	506	486	0	561	39	6	
0	0	0	0	0	510	488	0	563	39	6	
1	0	0	0	0	507	490	0	553	39	6	
2	0	0	0	0	505	494	0	560	39	6	
3	0	0	0	0	508	494	0	561	38	6	
4	0	0	0	0	507	494	0	565	39	7	
5	0	0	0	0	515	497	0	568	39	7	
6	0	0	0	0	511	496	0	558	38	6	
7	0	0	0	0	507	494	0	550	39	6	
8	0	0	0	0	507	492	0	534	38	6	
9	0	0	0	0	512	491	0	519	38	6	
10	0	0	0	0	510	491	0	505	39	6	
11	0	0	0	0	507	492	0	496	38	6	
12	0	0	0	0	498	493	0	488	39	7	
13	0	0	0	0	512	497	0	482	39	7	
14	0	0	0	0	513	499	0	478	38	7	
15	0	0	0	0	509	499	0	475	39	6	
0	0	0	0	0	505	500	0	468	38	6	
1	0	0	0	0	511	501	0	467	39	6	
2	0	0	0	0	507	502	0	462	39	6	
3	0	0	0	0	508	502	0	462	38	6	
4	0	0	0	0	503	502	0	466	39	6	
5	0	0	0	0	506	502	0	466	38	7	
6	0	0	0	0	507	500	0	470	38	7	
7	0	0	0	0	507	496	0	464	39	6	
8	0	0	0	0	506	494	0	460	38	6	
9	0	0	0	0	509	495	0	460	39	6	
10	0	0	0	0	507	496	0	460	39	6	
11	0	0	0	0	507	497	0	463	38	6	
12	0	0	0	0	507	497	0	467	38	6	
13	0	0	0	0	509	497	0	469	38	7	
14	0	0	0	0	512	495	0	469	39	7	
15	0	0	0	0	507	496	0	471	39	6	
0	0	0	0	0	507	499	0	467	39	6	
1	0	0	0	0	510	501	0	467	38	6	
2	0	0	0	0	512	499	0	465	38	6	
3	0	0	0	0	511	495	0	478	38	6	
4	0	0	0	0	509	490	0	505	39	6	
5	0	0	0	0	500	487	0	515	39	6	
6	0	0	0	0	507	487	0	536	38	7	
7	0	0	0	0	507	489	0	546	39	7	
8	0	0	0	0	512	491	0	546	38	6	
9	0	0	0	0	509	492	0	558	39	6	
10	0	0	0	0	502	492	0	550	39	6	
11	0	0	0	0	503	496	0	555	38	6	
12	0	0	0	0	512	498	0	558	39	6	
13	0	0	0	0	510	500	0	553	39	6	
14	0	0	0	0	503	500	0	560	39	7	
15	0	0	0	0	505	498	0	549	39	7	
0	0	0	0	0	514	496	0	551	39	6	
1	0	0	0	0	509	497	0	551	38	6	
2	0	0	0	0	505	502	0	543	39	6	
3	0	0	0	0	508	507	0	533	38	6	
4	0	0	0	0	508	513	0	519	38	6	
5	0	0	0	0	501	519	0	507	38	6	
6	0	0	0	0	506	527	0	496	38	7	
7	0	0	0	0	507	530	0	487	39	7	
8	0	0	0	0	507	530	0	480	39	6	
9	0	0	0	0	509	532	0	474	39	6	
10	0	0	0	0	506	534	0	468	39	6	
11	0	0	0	0	513	532	0	467	38	6	
12	0	0	0	0	512	529	0	469	39	6	
13	0	0	0	0	502	527	0	471	38	6	
14	0	0	0	0	507	527	0	472	39	6	
15	0	0	0	0	510	530	0	471	39	7	
0	0	0	0	0	513	535	0	467	38	7	
1	0	0	0	0	505	539	0	466	39	6	
2	0	0	0	0	507	543	0	464	39	6	
3	0	0	0	0	508	547	0	467	38	6	
4	0	0	0	0	504	547	0	470	39	6	
5	0	0	0	0	507	547	0	472	39	6	
6	0	0	0	0	503	547	0	474	39	6	
7	0	0	0	0	502	547	0	478	39	7	
8	0	0	0	0	511	547	0	475	38	7	
9	0	0	0	0	509	551	0	475	39	6	
10	0	0	0	0	502	554	0	474	39	6	
11	0	0	0	0	515	553	0	476	38	6	
12	0	0	0	0	507	553	0	496	39	6	
13	0	0	0	0	508	554	0	481	39	6	
14	0	0	0	0	510	552	0	481	39	6	
15	0	0	0	0	509	551	0	496	39	6	
0	0	0	0	0	498	549	0	516	39	7	
1	0	0	0	0	502	544	0	522	39	6	
2	0	0	0	0	514	539	0	539	38	6	
3	0	0	0	0	503	534	0	544	38	6	
4	0	0	0	0	508	536	0	551	39	6	
5	0	0	0	0	504	539	0	561	39	6	
6	0	0	0	0	514	542	0	557	39	6	
7	0	0	0	0	510	545	0	566	39	6	
8	0	0	0	0	510	551	0	556	39	7	
9	0	0	0	0	510	555	0	552	39	6	
10	0	0	0	0	502	554	0	559	39	6	
11	0	0	0	0	511	553	0	553	38	6	
12	0	0	0	0	508	551	0	547	38	6	
13	0	0	0	0	511	551	0	529	39	6	
14	0	0	0	0	509	556	0	513	39	6	
15	0	0	0	0	507	561	0	502	39	6	
0	0	0	0	0	503	564	0	493	39	7	
1	0	0	0	0	510	566	0	481	39	7	
2	0	0	0	0	507	568	0	476	39	6	
3	0	0	0	0	507	568	0	472	38	6	
4	0	0	0	0	507	569	0	473	38	6	
5	0	0	0	0	516	571	0	469	39	6	
6	0	0	0	0	510	572	0	469	39	6	
7	0	0	0	0	510	572	0	467	39	6	
8	0	0	0	0	501	573	0	465	39	6	
9	0	0	0	0	500	573	0	463	39	7	
10	0	0	0	0	504	572	0	464	39	6	
11	0	0	0	0	508	570	0	468	38	6	
12	0	0	0	0	510	570	0	472	39	6	
13	0	0	0	0	511	569	0	473	38	6	
14	0	0	0	0	496	569	0	474	39	6	
15	0	0	0	0	508	569	0	480	39	6	
0	0	0	0	0	510	567	0	474	38	6	
1	0	0	0	0	512	564	0	472	39	7	
2	0	0	0	0	511	566	0	474	38	7	
3	0	0	0	0	506	566	0	476	38	6	
4	0	0	0	0	501	567	0	480	39	6	
5	0	0	0	0	511	568	0	481	38	6	
6	0	0	0	0	508	568	0	482	38	6	
7	0	0	0	0	511	568	0	482	39	6	
8	0	0	0	0	505	566	0	489	39	6	
9	0	0	0	0	510	564	0	510	39	6	
10	0	0	0	0	503	563	0	516	39	7	
11	0	0	0	0	508	562	0	511	38	6	
12	0	0	0	0	505	559	0	519	39	6	
13	0	0	0	0	508	556	0	536	39	6	
14	0	0	0	0	503	551	0	536	38	6	
15	0	0	0	0	513	549	0	550	39	6	
0	0	0	0	0	510	550	0	548	38	6	
1	0	0	0	0	513	548	0	548	38	6	
2	0	0	0	0	509	547	0	557	38	7	
3	0	0	0	0	509	544	0	557	38	6	
4	0	0	0	0	505	544	0	566	38	6	
5	0	0	0	0	503	542	0	563	38	6	
6	0	0	0	0	506	542	0	564	38	6	
7	0	0	0	0	501	542	0	569	39	6	
8	0	0	0	0	508	542	0	558	39	6	
9	0	0	0	0	513	542	0	567	39	6	
10	0	0	0	0	507	540	0	566	39	7	
11	0	0	0	0	507	537	0	559	38	7	
12	0	0	0	0	508	533	0	548	39	6	
13	0	0	0	0	499	532	0	532	38	6	
14	0	0	0	0	506	537	0	521	38	6	
15	0	0	0	0	514	540	0	509	39	6	
0	0	0	0	0	504	540	0	498	38	6	
1	0	0	0	0	511	542	0	492	39	6	
2	0	0	0	0	508	541	0	488	38	6	
3	0	0	0	0	511	540	0	487	38	7	
4	0	0	0	0	515	539	0	488	39	6	
5	0	0	0	0	503	535	0	487	39	6	
6	0	0	0	0	509	533	0	486	39	6	
7	0	0	0	0	512	529	0	488	39	6	
8	0	0	0	0	504	524	0	483	39	6	
9	0	0	0	0	505	518	0	483	39	6	
10	0	0	0	0	511	513	0	483	39	6	
11	0	0	0	0	509	506	0	485	38	7	
12	0	0	0	0	507	499	0	489	39	6	
13	0	0	0	0	504	494	0	491	39	6	
14	0	0	0	0	510	494	0	492	39	6	
15	0	0	0	0	506	493	0	492	39	6	
0	0	0	0	0	508	494	0	488	39	6	
1	0	0	0	0	501	496	0	488	39	6	
2	0	0	0	0	505	498	0	486	39	6	
3	0	0	0	0	503	501	0	487	38	7	
4	0	0	0	0	505	507	0	492	39	7	
5	0	0	0	0	505	505	0	494	39	6	
6	0	0	0	0	515	501	0	495	39	6	
7	0	0	0	0	519	494	0	497	39	6	
8	0	0	0	0	503	487	0	515	39	6	
9	0	0	0	0	510	482	0	533	39	6	
10	0	0	0	0	511	481	0	543	39	6	
11	0	0	0	0	508	482	0	565	38	7	
12	0	0	0	0	510	481	0	572	39	7	
13	0	0	0	0	504	475	0	578	39	6	
14	0	0	0	0	512	470	0	579	39	6	
15	0	0	0	0	503	465	0	576	39	6	
0	0	0	0	0	509	460	0	584	39	6	
1	0	0	0	0	506	457	0	576	39	6	
2	0	0	0	0	508	454	0	581	39	6	
3	0	0	0	0	508	448	0	581	38	6	
4	0	0	0	0	508	444	0	576	39	7	
5	0	0	0	0	497	441	0	568	39	6	
6	0	0	0	0	511	437	0	576	39	6	
7	0	0	0	0	510	431	0	572	39	6	
8	0	0	0	0	505	423	0	564	38	6	
9	0	0	0	0	507	418	0	555	38	6	
10	0	0	0	0	505	415	0	541	39	6	
11	0	0	0	0	501	418	0	527	38	6	
12	0	0	0	0	504	424	0	517	39	7	
13	0	0	0	0	512	426	0	510	39	7	
14	0	0	0	0	516	426	0	507	38	6	
15	0	0	0	0	507	427	0	502	39	6	
0	0	0	0	0	505	427	0	495	39	6	
1	0	0	0	0	514	428	0	492	38	6	
2	0	0	0	0	507	428	0	490	39	6	
3	0	0	0	0	504	426	0	491	38	6	
4	0	0	0	0	508	423	0	489	39	7	
5	0	0	0	0	505	423	0	489	39	7	
6	0	0	0	0	505	424	0	490	39	6	
7	0	0	0	0	508	424	0	488	39	6	
8	0	0	0	0	508	423	0	486	39	6	
9	0	0	0	0	509	422	0	483	39	6	
10	0	0	0	0	507	421	0	483	39	6	
11	0	0	0	0	508	422	0	487	38	6	
12	0	0	0	0	505	422	0	486	38	6	
13	0	0	0	0	512	422	0	487	39	7	
14	0	0	0	0	504	420	0	491	39	6	
15	0	0	0	0	508	417	0	490	39	6	
0	0	0	0	0	512	414	0	487	39	6	
1	0	0	0	0	514	411	0	487	38	6	
2	0	0	0	0	509	409	0	487	39	6	
3	0	0	0	0	501	411	0	491	38	6	
4	0	0	0	0	515	413	0	489	39	6	
5	0	0	0	0	510	413	0	488	38	7	
6	0	0	0	0	505	412	0	493	39	7	
7	0	0	0	0	508	409	0	496	39	6	
8	0	0	0	0	507	404	0	519	39	6	
9	0	0	0	0	500	399	0	530	39	6	
10	0	0	0	0	505	393	0	545	39	6	
11	0	0	0	0	507	391	0	553	38	6	
12	0	0	0	0	501	396	0	554	39	6	
13	0	0	0	0	503	404	0	568	39	7	
14	0	0	0	0	511	410	0	568	38	7	
15	0	0	0	0	515	412	0	572	39	6	
0	0	0	0	0	507	413	0	567	39	6	
1	0	0	0	0	510	416	0	559	39	6	
2	0	0	0	0	512	421	0	566	39	6	
3	0	0	0	0	511	428	0	560	38	6	
4	0	0	0	0	505	430	0	554	39	6	
5	0	0	0	0	503	432	0	540	39	7	
6	0	0	0	0	504	432	0	528	39	7	
7	0	0	0	0	504	432	0	514	39	7	
8	0	0	0	0	512	431	0	504	39	6	
9	0	0	0	0	511	431	0	495	39	6	
10	0	0	0	0	517	434	0	489	39	6	
11	0	0	0	0	506	438	0	486	38	6	
12	0	0	0	0	505	441	0	485	39	6	
13	0	0	0	0	506	444	0	483	39	6	
14	0	0	0	0	502	445	0	486	39	7	
15	0	0	0	0	504	442	0	482	39	7	
0	0	0	0	0	511	438	0	476	39	6	
1	0	0	0	0	513	440	0	472	39	6	
2	0	0	0	0	498	444	0	473	39	6	
3	0	0	0	0	507	446	0	475	38	6	
4	0	0	0	0	509	447	0	478	38	6	
5	0	0	0	0	515	445	0	480	39	6	
6	0	0	0	0	511	444	0	487	39	7	
7	0	0	0	0	504	444	0	481	39	7	
8	0	0	0	0	507	443	0	477	39	6	
9	0	0	0	0	507	441	0	475	38	6	
10	0	0	0	0	510	440	0	477	39	6	
11	0	0	0	0	508	440	0	481	38	6	
12	0	0	0	0	506	440	0	480	39	6	
13	0	0	0	0	506	438	0	477	39	6	
14	0	0	0	0	508	439	0	476	38	7	
15	0	0	0	0	506	440	0	474	39	7	
0	0	0	0	0	511	440	0	471	38	7	
1	0	0	0	0	504	437	0	468	39	6	
2	0	0	0	0	512	433	0	467	39	6	
3	0	0	0	0	504	434	0	472	38	6	
4	0	0	0	0	504	439	0	472	39	6	
5	0	0	0	0	510	443	0	476	38	6	
6	0	0	0	0	508	446	0	478	39	6	
7	0	0	0	0	510	448	0	477	39	7	
8	0	0	0	0	504	452	0	472	38	7	
9	0	0	0	0	510	457	0	470	38	6	
10	0	0	0	0	505	461	0	472	38	6	
11	0	0	0	0	504	460	0	476	38	6	
12	0	0	0	0	508	460	0	475	39	6	
13	0	0	0	0	515	461	0	478	39	6	
14	0	0	0	0	509	460	0	479	39	6	
15	0	0	0	0	508	460	0	481	39	7	
0	0	0	0	0	508	459	0	476	39	7	
1	0	0	0	0	510	457	0	475	39	6	
2	0	0	0	0	508	457	0	477	39	6	
3	0	0	0	0	497	457	0	482	38	6	
4	0	0	0	0	507	455	0	484	39	6	
5	0	0	0	0	509	454	0	485	38	6	
6	0	0	0	0	515	452	0	487	39	6	
7	0	0	0	0	509	452	0	485	39	6	
8	0	0	0	0	510	455	0	482	39	7	
9	0	0	0	0	503	457	0	479	39	7	
10	0	0	0	0	505	461	0	480	39	6	
11	0	0	0	0	512	463	0	502	38	6	
12	0	0	0	0	512	463	0	525	39	6	
13	0	0	0	0	506	464	0	537	39	6	
14	0	0	0	0	510	466	0	557	39	6	
15	0	0	0	0	514	469	0	552	39	6	
0	0	0	0	0	506	470	0	563	39	7	
1	0	0	0	0	510	469	0	565	39	7	
2	0	0	0	0	508	469	0	563	39	6	
3	0	0	0	0	508	468	0	571	38	6	
4	0	0	0	0	505	468	0	562	39	6	
5	0	0	0	0	505	465	0	567	39	6	
6	0	0	0	0	508	465	0	566	38	6	
7	0	0	0	0	505	466	0	558	39	6	
8	0	0	0	0	506	465	0	564	38	7	
9	0	0	0	0	503	461	0	553	39	7	
10	0	0	0	0	510	457	0	559	38	7	
11	0	0	0	0	512	456	0	556	38	6	
12	0	0	0	0	507	459	0	551	39	6	
13	0	0	0	0	504	463	0	563	39	6	
14	0	0	0	0	511	466	0	559	39	6	
15	0	0	0	0	513	468	0	563	39	6	
0	0	0	0	0	504	471	0	560	38	6	
1	0	0	0	0	509	475	0	552	39	7	
2	0	0	0	0	510	476	0	561	39	7	
3	0	0	0	0	504	475	0	550	38	6	
4	0	0	0	0	506	473	0	544	38	6	
5	0	0	0	0	501	473	0	531	39	6	
6	0	0	0	0	504	475	0	518	38	6	
7	0	0	0	0	504	476	0	508	39	6	
8	0	0	0	0	506	477	0	499	38	6	
9	0	0	0	0	516	479	0	490	38	7	
10	0	0	0	0	509	486	0	500	38	7	
11	0	0	0	0	511	493	0	482	38	6	
12	0	0	0	0	501	497	0	481	38	6	
13	0	0	0	0	510	497	0	482	38	6	
14	0	0	0	0	509	496	0	481	38	6	
15	0	0	0	0	507	495	0	479	39	6	
0	0	0	0	0	504	493	0	476	39	6	
1	0	0	0	0	509	491	0	474	38	6	
2	0	0	0	0	510	487	0	474	39	7	
3	0	0	0	0	507	481	0	476	38	6	
4	0	0	0	0	505	478	0	477	39	6	
5	0	0	0	0	507	478	0	480	39	6	
6	0	0	0	0	503	475	0	480	38	6	
7	0	0	0	0	513	472	0	478	39	6	
8	0	0	0	0	512	473	0	490	39	6	
9	0	0	0	0	508	478	0	475	38	6	
10	0	0	0	0	505	478	0	475	39	7	
11	0	0	0	0	502	479	0	477	38	7	
12	0	0	0	0	505	477	0	479	38	6	
13	0	0	0	0	506	473	0	480	39	6	
14	0	0	0	0	507	472	0	481	38	6	
15	0	0	0	0	510	475	0	480	39	6	
0	0	0	0	0	512	480	0	482	39	6	
1	0	0	0	0	513	483	0	504	39	6	
2	0	0	0	0	503	483	0	519	39	7	
3	0	0	0	0	500	483	0	535	38	7	
4	0	0	0	0	506	484	0	551	39	6	
5	0	0	0	0	505	488	0	551	39	6	
6	0	0	0	0	510	494	0	571	39	6	
7	0	0	0	0	507	500	0	561	39	6	
8	0	0	0	0	513	505	0	561	39	6	
9	0	0	0	0	506	509	0	565	39	6	
10	0	0	0	0	509	511	0	554	39	6	
11	0	0	0	0	504	512	0	561	38	7	
12	0	0	0	0	509	512	0	558	39	6	
13	0	0	0	0	504	510	0	551	39	6	
14	0	0	0	0	505	506	0	549	39	6	
15	0	0	0	0	504	502	0	559	39	6	
0	0	0	0	0	509	499	0	551	39	6	
1	0	0	0	0	507	498	0	551	39	6	
2	0	0	0	0	508	497	0	534	39	6	
3	0	0	0	0	510	492	0	520	38	7	
4	0	0	0	0	509	487	0	511	39	6	
5	0	0	0	0	506	486	0	503	38	6	
6	0	0	0	0	504	484	0	498	39	6	
7	0	0	0	0	512	483	0	492	39	6	
8	0	0	0	0	511	487	0	489	39	6	
9	0	0	0	0	510	491	0	487	39	6	
10	0	0	0	0	505	491	0	485	38	6	
11	0	0	0	0	509	491	0	486	38	7	
12	0	0	0	0	507	493	0	487	38	7	
13	0	0	0	0	510	496	0	487	39	6	
14	0	0	0	0	502	500	0	492	39	6	
15	0	0	0	0	509	504	0	487	39	6	
0	0	0	0	0	510	509	0	484	39	6	
1	0	0	0	0	502	510	0	487	39	6	
2	0	0	0	0	504	509	0	487	38	6	
3	0	0	0	0	504	508	0	488	38	6	
4	0	0	0	0	508	507	0	491	38	7	
5	0	0	0	0	510	507	0	494	39	6	
6	0	0	0	0	508	508	0	496	38	6	
7	0	0	0	0	509	508	0	496	39	6	
8	0	0	0	0	508	507	0	496	39	6	
9	0	0	0	0	508	506	0	496	39	6	
10	0	0	0	0	508	504	0	494	39	6	
11	0	0	0	0	512	502	0	498	38	6	
12	0	0	0	0	508	500	0	502	39	7	
13	0	0	0	0	504	497	0	507	39	7	
14	0	0	0	0	500	492	0	534	38	6	
15	0	0	0	0	508	487	0	548	39	6	
0	0	0	0	0	510	484	0	557	39	6	
1	0	0	0	0	504	481	0	571	39	6	
2	0	0	0	0	510	476	0	575	39	6	
3	0	0	0	0	500	468	0	583	38	6	
4	0	0	0	0	503	459	0	580	39	7	
5	0	0	0	0	511	451	0	582	38	7	
6	0	0	0	0	502	449	0	589	39	6	
7	0	0	0	0	507	454	0	583	39	6	
8	0	0	0	0	511	465	0	587	39	6	
9	0	0	0	0	515	483	0	583	39	6	
10	0	0	0	0	511	498	0	575	39	6	
11	0	0	0	0	506	508	0	562	38	6	
12	0	0	0	0	508	515	0	549	39	7	
13	0	0	0	0	506	518	0	535	39	7	
14	0	0	0	0	508	517	0	523	39	6	
15	0	0	0	0	505	515	0	517	39	6	
0	0	0	0	0	504	515	0	505	39	6	
1	0	0	0	0	507	516	0	498	39	6	
2	0	0	0	0	504	514	0	495	39	6	
3	0	0	0	0	510	512	0	494	38	6	
4	0	0	0	0	512	510	0	492	39	6	
5	0	0	0	0	511	507	0	492	39	7	
6	0	0	0	0	510	503	0	493	38	7	
7	0	0	0	0	505	499	0	491	39	6	
8	0	0	0	0	505	499	0	488	39	6	
9	0	0	0	0	506	498	0	488	38	6	
10	0	0	0	0	507	497	0	488	39	6	
11	0	0	0	0	503	503	0	493	38	6	
12	0	0	0	0	508	510	0	494	39	6	
13	0	0	0	0	513	514	0	495	39	7	
14	0	0	0	0	503	516	0	496	38	7	
15	0	0	0	0	502	516	0	495	39	6	
0	0	0	0	0	505	516	0	493	38	6	
1	0	0	0	0	511	516	0	491	39	6	
2	0	0	0	0	504	517	0	492	39	6	
3	0	0	0	0	510	518	0	498	38	6	
4	0	0	0	0	506	515	0	496	39	6	
5	0	0	0	0	503	511	0	499	39	7	
6	0	0	0	0	511	507	0	502	38	7	
7	0	0	0	0	513	501	0	523	39	7	
8	0	0	0	0	502	497	0	536	38	6	
9	0	0	0	0	507	496	0	544	38	6	
10	0	0	0	0	516	495	0	566	38	6	
11	0	0	0	0	508	495	0	572	38	6	
12	0	0	0	0	510	497	0	584	38	6	
13	0	0	0	0	500	500	0	586	39	7	
14	0	0	0	0	515	503	0	586	39	7	
15	0	0	0	0	507	505	0	592	39	7	
0	0	0	0	0	509	504	0	581	38	6	
1	0	0	0	0	507	502	0	596	39	6	
2	0	0	0	0	509	498	0	589	38	6	
3	0	0	0	0	508	499	0	584	38	6	
4	0	0	0	0	502	504	0	575	39	6	
5	0	0	0	0	506	505	0	559	39	6	
6	0	0	0	0	505	506	0	543	38	7	
7	0	0	0	0	507	507	0	532	39	7	
8	0	0	0	0	505	507	0	521	39	6	
9	0	0	0	0	509	507	0	513	38	6	
10	0	0	0	0	512	509	0	505	39	6	
11	0	0	0	0	511	511	0	503	38	6	
12	0	0	0	0	509	514	0	510	38	6	
13	0	0	0	0	505	517	0	504	39	6	
14	0	0	0	0	508	518	0	505	38	7	
15	0	0	0	0	507	519	0	504	39	7	
0	0	0	0	0	511	518	0	500	38	7	
1	0	0	0	0	502	516	0	499	38	6	
2	0	0	0	0	509	515	0	499	39	6	
3	0	0	0	0	500	513	0	503	38	6	
4	0	0	0	0	505	512	0	513	39	6	
5	0	0	0	0	514	510	0	504	39	6	
6	0	0	0	0	505	508	0	504	38	6	
7	0	0	0	0	507	505	0	503	39	7	
8	0	0	0	0	511	504	0	499	39	7	
9	0	0	0	0	506	500	0	494	39	6	
10	0	0	0	0	508	498	0	493	39	6	
11	0	0	0	0	508	496	0	496	38	6	
12	0	0	0	0	505	494	0	498	39	6	
13	0	0	0	0	509	490	0	502	39	6	
14	0	0	0	0	508	487	0	503	39	7	
15	0	0	0	0	503	482	0	502	39	7	
0	0	0	0	0	512	477	0	512	39	7	
1	0	0	0	0	510	472	0	529	39	6	
2	0	0	0	0	508	468	0	538	39	6	
3	0	0	0	0	507	468	0	558	38	6	
4	0	0	0	0	511	468	0	566	39	6	
5	0	0	0	0	512	470	0	575	38	6	
6	0	0	0	0	508	475	0	579	39	6	
7	0	0	0	0	508	484	0	570	39	7	
8	0	0	0	0	508	493	0	576	38	7	
9	0	0	0	0	508	502	0	569	39	7	
10	0	0	0	0	508	510	0	568	39	6	
11	0	0	0	0	508	516	0	573	38	6	
12	0	0	0	0	506	521	0	565	38	6	
13	0	0	0	0	510	526	0	574	38	6	
14	0	0	0	0	505	528	0	565	38	6	
15	0	0	0	0	504	527	0	561	39	6	
0	0	0	0	0	510	525	0	579	39	7	
1	0	0	0	0	511	525	0	560	38	7	
2	0	0	0	0	505	523	0	567	39	6	
3	0	0	0	0	507	521	0	563	38	6	
4	0	0	0	0	503	521	0	557	38	6	
5	0	0	0	0	508	520	0	547	39	6	
6	0	0	0	0	510	515	0	530	38	6	
7	0	0	0	0	506	510	0	516	39	6	
8	0	0	0	0	508	507	0	507	38	7	
9	0	0	0	0	508	504	0	499	38	7	
10	0	0	0	0	507	498	0	495	39	6	
11	0	0	0	0	507	493	0	493	38	6	
12	0	0	0	0	508	491	0	490	39	6	
13	0	0	0	0	519	491	0	502	39	6	
14	0	0	0	0	499	495	0	487	39	6	
15	0	0	0	0	502	498	0	486	39	6	
0	0	0	0	0	505	502	0	486	39	6	
1	0	0	0	0	511	505	0	481	38	7	
2	0	0	0	0	505	508	0	481	39	7	
3	0	0	0	0	512	513	0	484	38	6	
4	0	0	0	0	500	521	0	487	39	6	
5	0	0	0	0	497	527	0	492	39	6	
6	0	0	0	0	513	528	0	496	38	6	
7	0	0	0	0	504	528	0	493	39	6	
8	0	0	0	0	510	527	0	492	39	6	
9	0	0	0	0	513	527	0	487	39	7	
10	0	0	0	0	512	529	0	488	39	7	
11	0	0	0	0	505	531	0	491	38	6	
12	0	0	0	0	514	530	0	493	39	6	
13	0	0	0	0	511	526	0	495	38	6	
14	0	0	0	0	505	521	0	498	39	6	
15	0	0	0	0	505	520	0	500	39	6	
0	0	0	0	0	515	518	0	500	39	6	
1	0	0	0	0	506	517	0	497	39	7	
2	0	0	0	0	504	516	0	497	39	7	
3	0	0	0	0	503	516	0	500	38	6	
4	0	0	0	0	508	515	0	503	39	6	
5	0	0	0	0	511	515	0	507	39	6	
6	0	0	0	0	504	513	0	506	39	6	
7	0	0	0	0	512	511	0	505	39	6	
8	0	0	0	0	511	509	0	504	39	6	
9	0	0	0	0	509	508	0	500	39	6	
10	0	0	0	0	505	509	0	499	39	7	
11	0	0	0	0	510	510	0	502	38	7	
12	0	0	0	0	512	512	0	504	38	6	
13	0	0	0	0	507	511	0	503	38	6	
14	0	0	0	0	509	509	0	506	38	6	
15	0	0	0	0	508	509	0	504	39	6	
0	0	0	0	0	509	507	0	500	38	6	
1	0	0	0	0	509	505	0	499	38	6	
2	0	0	0	0	503	501	0	499	39	7	
3	0	0	0	0	504	497	0	504	38	7	
4	0	0	0	0	507	495	0	503	39	6	
5	0	0	0	0	503	495	0	505	39	6	
6	0	0	0	0	508	495	0	504	38	6	
7	0	0	0	0	508	496	0	500	39	6	
8	0	0	0	0	504	496	0	502	39	6	
9	0	0	0	0	504	495	0	527	38	6	
10	0	0	0	0	503	491	0	543	38	6	
11	0	0	0	0	510	490	0	560	38	7	
12	0	0	0	0	507	490	0	574	39	6	
13	0	0	0	0	506	484	0	574	39	6	
14	0	0	0	0	512	480	0	588	38	6	
15	0	0	0	0	512	483	0	583	39	6	
0	0	0	0	0	509	487	0	583	39	6	
1	0	0	0	0	508	489	0	586	39	6	
2	0	0	0	0	511	487	0	579	39	6	
3	0	0	0	0	508	484	0	597	38	7	
4	0	0	0	0	511	489	0	585	39	6	
5	0	0	0	0	507	495	0	583	39	6	
6	0	0	0	0	507	499	0	589	38	6	
7	0	0	0	0	504	502	0	582	39	6	
8	0	0	0	0	514	504	0	590	38	6	
9	0	0	0	0	503	506	0	581	39	6	
10	0	0	0	0	510	505	0	578	39	6	
11	0	0	0	0	504	503	0	596	38	6	
12	0	0	0	0	507	500	0	577	39	7	
13	0	0	0	0	506	497	0	584	38	6	
14	0	0	0	0	509	496	0	582	38	6	
15	0	0	0	0	505	499	0	578	39	6	
0	0	0	0	0	506	507	0	581	39	6	
1	0	0	0	0	507	513	0	567	39	6	
2	0	0	0	0	515	519	0	557	39	6	
3	0	0	0	0	509	521	0	561	38	6	
4	0	0	0	0	511	519	0	531	38	7	
5	0	0	0	0	504	518	0	520	39	6	
6	0	0	0	0	513	519	0	514	39	6	
7	0	0	0	0	511	520	0	509	39	6	
8	0	0	0	0	504	522	0	506	39	6	
9	0	0	0	0	505	523	0	517	39	6	
10	0	0	0	0	500	522	0	541	38	6	
11	0	0	0	0	508	520	0	551	38	6	
12	0	0	0	0	504	519	0	556	39	7	
13	0	0	0	0	508	517	0	568	38	7	
14	0	0	0	0	513	521	0	577	38	6	
15	0	0	0	0	505	528	0	571	39	6	
0	0	0	0	0	504	531	0	563	39	6	
1	0	0	0	0	513	529	0	545	39	6	
2	0	0	0	0	510	527	0	529	39	6	
3	0	0	0	0	503	523	0	519	38	6	
4	0	0	0	0	505	519	0	510	39	6	
5	0	0	0	0	511	519	0	505	39	7	
6	0	0	0	0	505	523	0	502	38	6	
7	0	0	0	0	504	526	0	498	39	6	
8	0	0	0	0	510	524	0	496	39	6	
9	0	0	0	0	504	519	0	492	39	6	
10	0	0	0	0	499	519	0	493	38	6	
11	0	0	0	0	513	519	0	507	38	6	
12	0	0	0	0	504	520	0	497	39	6	
13	0	0	0	0	506	521	0	497	39	7	
14	0	0	0	0	511	518	0	497	39	6	
15	0	0	0	0	512	515	0	498	39	6	
0	0	0	0	0	507	515	0	497	38	6	
1	0	0	0	0	510	517	0	493	39	6	
2	0	0	0	0	512	520	0	494	39	6	
3	0	0	0	0	505	522	0	505	38	6	
4	0	0	0	0	505	521	0	499	38	6	
5	0	0	0	0	508	520	0	500	39	7	
6	0	0	0	0	508	519	0	501	38	7	
7	0	0	0	0	505	521	0	499	39	6	
8	0	0	0	0	508	523	0	495	39	6	
9	0	0	0	0	505	523	0	494	38	6	
10	0	0	0	0	512	521	0	492	38	6	
11	0	0	0	0	512	517	0	497	38	6	
12	0	0	0	0	503	515	0	515	38	6	
13	0	0	0	0	508	515	0	540	39	6	
14	0	0	0	0	512	514	0	550	39	7	
15	0	0	0	0	505	511	0	569	39	6	
0	0	0	0	0	507	508	0	575	38	6	
1	0	0	0	0	504	505	0	575	39	6	
2	0	0	0	0	507	503	0	582	39	6	
3	0	0	0	0	509	497	0	576	38	6	
4	0	0	0	0	504	488	0	584	39	6	
5	0	0	0	0	510	476	0	579	39	6	
6	0	0	0	0	510	463	0	576	39	7	
7	0	0	0	0	503	455	0	580	39	6	
8	0	0	0	0	509	467	0	580	39	6	
9	0	0	0	0	505	486	0	580	39	6	
10	0	0	0	0	504	499	0	574	38	6	
11	0	0	0	0	504	504	0	573	38	6	
12	0	0	0	0	504	508	0	577	38	6	
13	0	0	0	0	504	513	0	571	38	6	
14	0	0	0	0	509	518	0	575	38	7	
15	0	0	0	0	510	524	0	565	39	7	
0	0	0	0	0	508	529	0	558	39	6	
1	0	0	0	0	509	531	0	545	39	6	
2	0	0	0	0	511	534	0	531	38	6	
3	0	0	0	0	505	540	0	519	38	6	
4	0	0	0	0	509	541	0	509	39	6	
5	0	0	0	0	505	540	0	502	39	6	
6	0	0	0	0	497	540	0	495	39	6	
7	0	0	0	0	503	537	0	493	39	7	
8	0	0	0	0	505	535	0	488	39	6	
9	0	0	0	0	510	531	0	481	39	6	
10	0	0	0	0	505	527	0	480	38	6	
11	0	0	0	0	517	525	0	492	38	6	
12	0	0	0	0	509	524	0	483	39	6	
13	0	0	0	0	511	521	0	482	39	6	
14	0	0	0	0	511	517	0	483	39	6	
15	0	0	0	0	501	515	0	482	39	7	
0	0	0	0	0	499	513	0	478	39	6	
1	0	0	0	0	503	508	0	473	39	6	
2	0	0	0	0	512	503	0	472	39	6	
3	0	0	0	0	508	499	0	478	38	6	
4	0	0	0	0	507	499	0	475	39	6	
5	0	0	0	0	512	502	0	476	39	6	
6	0	0	0	0	504	505	0	478	39	6	
7	0	0	0	0	507	507	0	478	39	7	
8	0	0	0	0	505	509	0	475	39	7	
9	0	0	0	0	500	512	0	474	39	6	
10	0	0	0	0	510	513	0	475	39	6	
11	0	0	0	0	507	517	0	481	38	6	
12	0	0	0	0	503	522	0	482	39	6	
13	0	0	0	0	499	524	0	505	38	6	
14	0	0	0	0	512	524	0	530	38	6	
15	0	0	0	0	511	519	0	536	39	7	
0	0	0	0	0	507	518	0	553	38	7	
1	0	0	0	0	508	519	0	549	39	6	
2	0	0	0	0	509	518	0	558	38	6	
3	0	0	0	0	510	516	0	567	38	6	
4	0	0	0	0	512	512	0	565	38	6	
5	0	0	0	0	506	508	0	572	38	6	
6	0	0	0	0	512	505	0	563	38	6	
7	0	0	0	0	511	500	0	564	39	7	
8	0	0	0	0	509	492	0	563	38	7	
9	0	0	0	0	506	487	0	551	38	6	
10	0	0	0	0	500	486	0	540	39	6	
11	0	0	0	0	503	486	0	527	38	6	
12	0	0	0	0	506	489	0	512	38	6	
13	0	0	0	0	512	492	0	501	38	6	
14	0	0	0	0	513	493	0	493	38	6	
15	0	0	0	0	509	497	0	489	39	6	
0	0	0	0	0	504	504	0	482	38	7	
1	0	0	0	0	499	512	0	477	39	7	
2	0	0	0	0	505	519	0	474	39	6	
3	0	0	0	0	507	521	0	475	38	6	
4	0	0	0	0	509	520	0	472	39	6	
5	0	0	0	0	508	518	0	472	38	6	
6	0	0	0	0	511	513	0	470	39	6	
7	0	0	0	0	509	510	0	468	39	6	
8	0	0	0	0	503	507	0	463	39	6	
9	0	0	0	0	505	505	0	460	38	7	
10	0	0	0	0	508	503	0	460	39	6	
11	0	0	0	0	508	498	0	460	38	6	
12	0	0	0	0	509	497	0	463	39	6	
13	0	0	0	0	504	496	0	464	39	6	
14	0	0	0	0	508	491	0	467	39	6	
15	0	0	0	0	512	485	0	466	39	6	
0	0	0	0	0	508	481	0	462	38	6	
1	0	0	0	0	510	479	0	473	38	7	
2	0	0	0	0	507	480	0	460	39	6	
3	0	0	0	0	511	476	0	460	38	6	
4	0	0	0	0	501	470	0	463	39	6	
5	0	0	0	0	514	476	0	464	39	6	
6	0	0	0	0	505	485	0	481	38	6	
7	0	0	0	0	506	491	0	500	39	6	
8	0	0	0	0	504	497	0	506	39	6	
9	0	0	0	0	499	504	0	531	39	7	
10	0	0	0	0	510	507	0	533	39	7	
11	0	0	0	0	507	512	0	538	38	6	
12	0	0	0	0	509	517	0	552	39	6	
13	0	0	0	0	503	519	0	548	39	6	
14	0	0	0	0	508	519	0	557	38	6	
15	0	0	0	0	511	519	0	547	39	6	
0	0	0	0	0	510	520	0	541	38	6	
1	0	0	0	0	507	519	0	545	39	7	
2	0	0	0	0	515	516	0	538	38	7	
3	0	0	0	0	513	513	0	532	38	6	
4	0	0	0	0	500	509	0	519	39	6	
5	0	0	0	0	496	508	0	504	38	6	
6	0	0	0	0	506	507	0	494	39	6	
7	0	0	0	0	512	504	0	486	39	6	
8	0	0	0	0	509	503	0	479	39	6	
9	0	0	0	0	505	503	0	473	38	6	
10	0	0	0	0	502	500	0	470	38	7	
11	0	0	0	0	508	495	0	472	38	6	
12	0	0	0	0	508	492	0	471	38	6	
13	0	0	0	0	505	488	0	471	39	6	
14	0	0	0	0	504	483	0	472	39	6	
15	0	0	0	0	507	479	0	470	39	6	
0	0	0	0	0	507	474	0	467	38	6	
1	0	0	0	0	512	473	0	466	38	6	
2	0	0	0	0	511	473	0	465	38	7	
3	0	0	0	0	510	472	0	469	38	7	
4	0	0	0	0	505	472	0	470	38	6	
5	0	0	0	0	510	473	0	473	39	6	
6	0	0	0	0	507	475	0	478	38	6	
7	0	0	0	0	501	479	0	479	39	6	
8	0	0	0	0	502	483	0	479	39	6	
9	0	0	0	0	509	486	0	478	38	6	
10	0	0	0	0	507	490	0	479	39	6	
11	0	0	0	0	505	496	0	490	38	7	
12	0	0	0	0	505	509	0	485	39	6	
13	0	0	0	0	508	526	0	486	39	6	
14	0	0	0	0	501	543	0	487	38	6	
15	0	0	0	0	511	562	0	493	39	6	
0	0	0	0	0	510	582	0	517	39	6	
1	0	0	0	0	515	603	0	526	39	6	
2	0	0	0	0	508	622	0	543	38	6	
3	0	0	0	0	511	643	0	557	38	7	
4	0	0	0	0	507	664	0	554	38	6	
5	0	0	0	0	508	684	0	569	38	6	
6	0	0	0	0	505	704	0	568	39	6	
7	0	0	0	0	508	731	0	575	39	6	
8	0	0	0	0	512	757	0	570	39	6	
9	0	0	0	0	507	779	0	561	39	6	
10	0	0	0	0	502	793	0	568	39	6	
11	0	0	0	0	509	807	0	560	38	7	
12	0	0	0	0	504	820	0	552	39	7	
13	0	0	0	0	507	831	0	537	39	6	
14	0	0	0	0	508	836	0	524	38	6	
15	0	0	0	0	504	839	0	511	39	6	
0	0	0	0	0	508	841	0	499	39	6	
1	0	0	0	0	516	840	0	492	39	6	
2	0	0	0	0	509	837	0	486	39	6	
3	0	0	0	0	503	831	0	482	38	6	
4	0	0	0	0	509	821	0	482	39	7	
5	0	0	0	0	509	803	0	481	39	6	
6	0	0	0	0	503	781	0	480	39	6	
7	0	0	0	0	508	758	0	481	39	6	
8	0	0	0	0	510	734	0	477	39	6	
9	0	0	0	0	504	710	0	477	39	6	
10	0	0	0	0	510	679	0	475	39	6	
11	0	0	0	0	510	649	0	477	38	6	
12	0	0	0	0	498	623	0	480	38	7	
13	0	0	0	0	505	598	0	483	39	6	
14	0	0	0	0	504	569	0	488	38	6	
15	0	0	0	0	505	539	0	485	39	6	
0	0	0	0	0	507	509	0	480	39	6	
1	0	0	0	0	502	476	0	486	38	6	
2	0	0	0	0	506	443	0	480	39	6	
3	0	0	0	0	514	416	0	482	38	6	
4	0	0	0	0	511	397	0	483	38	6	
5	0	0	0	0	513	385	0	485	39	7	
6	0	0	0	0	513	380	0	487	38	6	
7	0	0	0	0	508	373	0	486	39	6	
8	0	0	0	0	507	369	0	485	38	6	
9	0	0	0	0	505	369	0	486	39	6	
10	0	0	0	0	506	373	0	481	39	6	
11	0	0	0	0	506	378	0	483	38	6	
12	0	0	0	0	510	384	0	495	39	6	
13	0	0	0	0	508	388	0	523	39	6	
14	0	0	0	0	505	391	0	536	39	6	
15	0	0	0	0	504	394	0	552	39	6	
0	0	0	0	0	508	399	0	558	38	6	
1	0	0	0	0	513	407	0	566	39	6	
2	0	0	0	0	509	415	0	570	38	6	
3	0	0	0	0	517	422	0	568	38	6	
4	0	0	0	0	511	429	0	575	38	6	
5	0	0	0	0	504	434	0	573	38	7	
6	0	0	0	0	508	438	0	570	39	6	
7	0	0	0	0	508	441	0	574	39	6	
8	0	0	0	0	511	444	0	562	39	6	
9	0	0	0	0	504	446	0	566	39	6	
10	0	0	0	0	504	448	0	568	39	6	
11	0	0	0	0	504	447	0	563	38	6	
12	0	0	0	0	509	447	0	555	39	6	
13	0	0	0	0	513	446	0	540	39	6	
14	0	0	0	0	509	444	0	525	38	7	
15	0	0	0	0	509	442	0	512	39	6	
0	0	0	0	0	498	440	0	504	39	6	
1	0	0	0	0	504	439	0	495	39	6	
2	0	0	0	0	506	439	0	489	39	6	
3	0	0	0	0	504	438	0	487	38	6	
4	0	0	0	0	511	435	0	487	39	6	
5	0	0	0	0	508	430	0	488	39	6	
6	0	0	0	0	511	426	0	491	39	7	
7	0	0	0	0	504	430	0	489	39	6	
8	0	0	0	0	505	437	0	487	38	6	
9	0	0	0	0	510	442	0	486	39	6	
10	0	0	0	0	510	444	0	486	39	6	
11	0	0	0	0	512	449	0	489	38	6	
12	0	0	0	0	505	455	0	493	39	6	
13	0	0	0	0	505	459	0	494	39	6	
14	0	0	0	0	514	458	0	496	38	7	
15	0	0	0	0	504	455	0	493	39	6	
0	0	0	0	0	506	454	0	490	38	6	
1	0	0	0	0	503	456	0	488	39	6	
2	0	0	0	0	508	459	0	489	39	6	
3	0	0	0	0	514	459	0	495	38	6	
4	0	0	0	0	504	458	0	495	39	6	
5	0	0	0	0	501	457	0	496	39	6	
6	0	0	0	0	507	461	0	500	38	6	
7	0	0	0	0	505	462	0	496	39	7	
8	0	0	0	0	508	462	0	491	38	6	
9	0	0	0	0	505	463	0	489	38	6	
10	0	0	0	0	504	462	0	490	38	6	
11	0	0	0	0	508	460	0	495	38	6	
12	0	0	0	0	511	458	0	494	38	6	
13	0	0	0	0	509	457	0	496	38	6	
14	0	0	0	0	507	460	0	497	39	6	
15	0	0	0	0	509	464	0	497	39	7	
0	0	0	0	0	513	470	0	495	39	7	
1	0	0	0	0	513	477	0	491	39	6	
2	0	0	0	0	505	484	0	491	38	6	
3	0	0	0	0	510	488	0	493	38	6	
4	0	0	0	0	509	487	0	496	38	6	
5	0	0	0	0	500	488	0	497	38	6	
6	0	0	0	0	509	489	0	518	38	6	
7	0	0	0	0	508	489	0	531	39	7	
8	0	0	0	0	508	490	0	539	39	6	
9	0	0	0	0	512	487	0	559	39	6	
10	0	0	0	0	511	484	0	562	39	6	
11	0	0	0	0	512	483	0	583	38	6	
12	0	0	0	0	505	484	0	576	39	6	
13	0	0	0	0	501	488	0	570	39	6	
14	0	0	0	0	509	490	0	579	39	6	
15	0	0	0	0	512	489	0	568	39	7	
0	0	0	0	0	509	488	0	572	39	7	
1	0	0	0	0	498	489	0	571	39	6	
2	0	0	0	0	504	491	0	567	39	6	
3	0	0	0	0	505	492	0	575	38	6	
4	0	0	0	0	504	495	0	566	39	6	
5	0	0	0	0	507	495	0	571	39	6	
6	0	0	0	0	512	494	0	573	39	6	
7	0	0	0	0	514	495	0	568	39	6	
8	0	0	0	0	506	495	0	581	39	7	
9	0	0	0	0	508	491	0	564	39	6	
10	0	0	0	0	515	489	0	554	39	6	
11	0	0	0	0	508	489	0	539	38	6	
12	0	0	0	0	516	490	0	522	39	6	
13	0	0	0	0	498	492	0	512	39	6	
14	0	0	0	0	499	494	0	499	39	6	
15	0	0	0	0	508	497	0	492	39	6	
0	0	0	0	0	498	498	0	487	39	7	
1	0	0	0	0	510	500	0	480	39	7	
2	0	0	0	0	512	501	0	480	39	6	
3	0	0	0	0	503	498	0	477	38	6	
4	0	0	0	0	513	494	0	475	39	6	
5	0	0	0	0	513	489	0	476	38	6	
6	0	0	0	0	501	489	0	474	39	6	
7	0	0	0	0	508	491	0	475	39	6	
8	0	0	0	0	504	491	0	471	38	6	
9	0	0	0	0	516	491	0	466	39	7	
10	0	0	0	0	511	490	0	466	39	6	
11	0	0	0	0	504	490	0	467	38	6	
12	0	0	0	0	504	488	0	469	38	6	
13	0	0	0	0	509	488	0	474	39	6	
14	0	0	0	0	508	490	0	472	38	6	
15	0	0	0	0	501	492	0	470	39	6	
0	0	0	0	0	507	492	0	468	39	6	
1	0	0	0	0	505	491	0	465	38	7	
2	0	0	0	0	513	489	0	465	38	6	
3	0	0	0	0	511	486	0	467	38	6	
4	0	0	0	0	511	487	0	468	38	7	
5	0	0	0	0	504	488	0	471	39	6	
6	0	0	0	0	507	491	0	477	38	6	
7	0	0	0	0	505	493	0	499	39	6	
8	0	0	0	0	501	496	0	508	39	6	
9	0	0	0	0	506	501	0	519	39	7	
10	0	0	0	0	507	505	0	537	39	7	
11	0	0	0	0	507	509	0	538	38	6	
12	0	0	0	0	508	513	0	550	38	6	
13	0	0	0	0	513	517	0	550	39	6	
14	0	0	0	0	508	521	0	549	38	6	
15	0	0	0	0	512	524	0	556	39	6	
0	0	0	0	0	513	523	0	547	39	6	
1	0	0	0	0	507	523	0	552	39	7	
2	0	0	0	0	508	521	0	548	39	7	
3	0	0	0	0	507	518	0	539	38	6	
4	0	0	0	0	515	514	0	525	39	6	
5	0	0	0	0	508	510	0	521	39	6	
6	0	0	0	0	510	507	0	495	38	6	
7	0	0	0	0	506	502	0	483	39	6	
8	0	0	0	0	504	497	0	472	39	6	
9	0	0	0	0	505	494	0	462	39	6	
10	0	0	0	0	505	498	0	459	39	7	
11	0	0	0	0	506	506	0	455	38	6	
12	0	0	0	0	508	509	0	452	39	6	
13	0	0	0	0	499	510	0	461	38	6	
14	0	0	0	0	516	513	0	455	39	6	
15	0	0	0	0	505	518	0	455	39	6	
0	0	0	0	0	509	521	0	453	39	6	
1	0	0	0	0	508	518	0	449	39	6	
2	0	0	0	0	512	515	0	452	39	7	
3	0	0	0	0	504	514	0	455	38	7	
4	0	0	0	0	502	516	0	455	39	6	
5	0	0	0	0	508	520	0	459	39	6	
6	0	0	0	0	509	523	0	459	39	6	
7	0	0	0	0	507	522	0	459	39	6	
8	0	0	0	0	515	521	0	467	39	6	
9	0	0	0	0	510	524	0	455	39	6	
10	0	0	0	0	498	526	0	457	39	7	
11	0	0	0	0	504	530	0	458	38	7	
12	0	0	0	0	516	531	0	461	38	6	
13	0	0	0	0	504	529	0	465	39	6	
14	0	0	0	0	504	528	0	468	39	6	
15	0	0	0	0	509	531	0	470	39	6	
0	0	0	0	0	514	535	0	490	39	6	
1	0	0	0	0	515	540	0	505	38	6	
2	0	0	0	0	501	543	0	515	39	6	
3	0	0	0	0	508	543	0	538	38	7	
4	0	0	0	0	507	543	0	543	39	6	
5	0	0	0	0	512	544	0	552	39	6	
6	0	0	0	0	502	548	0	555	38	6	
7	0	0	0	0	514	552	0	550	39	6	
8	0	0	0	0	499	558	0	560	38	6	
9	0	0	0	0	505	563	0	552	38	6	
10	0	0	0	0	512	565	0	556	38	6	
11	0	0	0	0	506	566	0	556	38	7	
12	0	0	0	0	510	566	0	549	38	6	
13	0	0	0	0	509	565	0	542	38	6	
14	0	0	0	0	511	563	0	551	38	6	
15	0	0	0	0	510	560	0	546	39	6	
0	0	0	0	0	504	557	0	540	39	6	
1	0	0	0	0	511	556	0	528	38	6	
2	0	0	0	0	502	559	0	515	38	6	
3	0	0	0	0	504	560	0	503	38	6	
4	0	0	0	0	511	559	0	492	38	7	
5	0	0	0	0	511	555	0	487	38	6	
6	0	0	0	0	513	552	0	485	38	6	
7	0	0	0	0	506	553	0	483	39	6	
8	0	0	0	0	502	554	0	480	39	6	
9	0	0	0	0	506	555	0	470	39	6	
10	0	0	0	0	504	553	0	468	38	6	
11	0	0	0	0	507	553	0	470	38	6	
12	0	0	0	0	511	555	0	473	38	7	
13	0	0	0	0	512	556	0	478	38	6	
14	0	0	0	0	514	555	0	476	39	6	
15	0	0	0	0	505	558	0	476	39	6	
0	0	0	0	0	505	567	0	472	39	6	
1	0	0	0	0	510	577	0	469	39	6	
2	0	0	0	0	506	582	0	469	39	6	
3	0	0	0	0	507	583	0	470	38	6	
4	0	0	0	0	506	582	0	473	39	7	
5	0	0	0	0	507	582	0	477	39	6	
6	0	0	0	0	508	583	0	480	39	6	
7	0	0	0	0	506	584	0	480	39	6	
8	0	0	0	0	502	582	0	477	39	6	
9	0	0	0	0	509	579	0	475	39	6	
10	0	0	0	0	512	576	0	479	39	6	
11	0	0	0	0	503	573	0	479	38	6	
12	0	0	0	0	507	569	0	479	39	6	
13	0	0	0	0	513	564	0	480	39	7	
14	0	0	0	0	508	562	0	479	38	6	
15	0	0	0	0	502	563	0	488	39	6	
0	0	0	0	0	512	564	0	509	39	6	
1	0	0	0	0	514	567	0	517	39	6	
2	0	0	0	0	511	569	0	535	38	6	
3	0	0	0	0	511	572	0	543	38	6	
4	0	0	0	0	514	574	0	545	39	6	
5	0	0	0	0	503	574	0	558	39	7	
6	0	0	0	0	503	569	0	556	39	6	
7	0	0	0	0	506	563	0	577	39	6	
8	0	0	0	0	510	561	0	559	38	6	
9	0	0	0	0	511	565	0	547	39	6	
10	0	0	0	0	502	569	0	555	39	6	
11	0	0	0	0	510	572	0	547	38	6	
12	0	0	0	0	506	576	0	547	38	6	
13	0	0	0	0	510	579	0	527	39	7	
14	0	0	0	0	505	577	0	512	39	6	
15	0	0	0	0	508	573	0	500	39	6	
0	0	0	0	0	501	569	0	491	39	6	
1	0	0	0	0	511	564	0	482	39	6	
2	0	0	0	0	507	559	0	478	38	6	
3	0	0	0	0	502	553	0	474	38	6	
4	0	0	0	0	503	547	0	473	39	6	
5	0	0	0	0	503	544	0	471	38	6	
6	0	0	0	0	510	545	0	472	38	7	
7	0	0	0	0	508	546	0	472	39	6	
8	0	0	0	0	504	544	0	467	38	6	
9	0	0	0	0	506	543	0	466	38	6	
10	0	0	0	0	508	544	0	468	38	6	
11	0	0	0	0	515	547	0	472	38	6	
12	0	0	0	0	506	545	0	475	38	6	
13	0	0	0	0	505	541	0	478	38	6	
14	0	0	0	0	516	537	0	483	38	7	
15	0	0	0	0	504	533	0	483	39	6	
0	0	0	0	0	511	531	0	481	38	6	
1	0	0	0	0	512	529	0	480	38	6	
2	0	0	0	0	504	527	0	484	39	6	
3	0	0	0	0	500	526	0	484	38	6	
4	0	0	0	0	502	525	0	485	39	6	
5	0	0	0	0	505	526	0	487	39	6	
6	0	0	0	0	504	527	0	487	38	7	
7	0	0	0	0	509	526	0	484	39	6	
8	0	0	0	0	512	522	0	487	39	6	
9	0	0	0	0	508	515	0	511	39	6	
10	0	0	0	0	512	509	0	529	38	6	
11	0	0	0	0	507	505	0	542	38	6	
12	0	0	0	0	504	503	0	558	39	6	
13	0	0	0	0	513	508	0	558	39	6	
14	0	0	0	0	505	511	0	569	39	6	
15	0	0	0	0	513	508	0	571	39	7	
0	0	0	0	0	510	501	0	568	39	6	
1	0	0	0	0	504	496	0	569	39	6	
2	0	0	0	0	497	494	0	577	39	6	
3	0	0	0	0	505	492	0	570	38	6	
4	0	0	0	0	513	489	0	568	39	6	
5	0	0	0	0	504	484	0	562	38	6	
6	0	0	0	0	510	480	0	560	39	6	
7	0	0	0	0	508	473	0	573	39	7	
8	0	0	0	0	512	469	0	566	39	6	
9	0	0	0	0	504	463	0	560	39	6	
10	0	0	0	0	504	459	0	564	39	6	
11	0	0	0	0	507	456	0	535	38	6	
12	0	0	0	0	518	455	0	524	39	6	
13	0	0	0	0	503	455	0	514	39	6	
14	0	0	0	0	511	452	0	507	39	6	
15	0	0	0	0	513	450	0	508	39	7	
0	0	0	0	0	506	446	0	499	39	7	
1	0	0	0	0	504	441	0	498	39	6	
2	0	0	0	0	502	441	0	497	39	6	
3	0	0	0	0	506	439	0	494	38	6	
4	0	0	0	0	510	438	0	495	39	6	
5	0	0	0	0	513	435	0	491	39	6	
6	0	0	0	0	501	433	0	492	39	6	
7	0	0	0	0	506	431	0	491	39	6	
8	0	0	0	0	504	428	0	487	39	7	
9	0	0	0	0	509	424	0	485	38	6	
10	0	0	0	0	506	419	0	486	39	6	
11	0	0	0	0	505	415	0	488	38	6	
12	0	0	0	0	509	411	0	487	39	6	
13	0	0	0	0	508	405	0	488	39	6	
14	0	0	0	0	509	401	0	487	38	6	
15	0	0	0	0	508	398	0	487	39	6	
0	0	0	0	0	506	401	0	483	38	7	
1	0	0	0	0	501	409	0	479	38	6	
2	0	0	0	0	510	415	0	479	39	6	
3	0	0	0	0	508	420	0	481	38	6	
4	0	0	0	0	511	424	0	484	38	6	
5	0	0	0	0	506	428	0	491	38	6	
6	0	0	0	0	508	430	0	515	38	6	
7	0	0	0	0	505	431	0	527	39	6	
8	0	0	0	0	504	432	0	537	39	7	
9	0	0	0	0	509	433	0	552	38	7	
10	0	0	0	0	508	432	0	554	39	6	
11	0	0	0	0	508	430	0	567	38	6	
12	0	0	0	0	515	428	0	565	38	6	
13	0	0	0	0	512	428	0	564	39	6	
14	0	0	0	0	504	428	0	571	39	6	
15	0	0	0	0	506	429	0	564	39	6	
0	0	0	0	0	509	431	0	572	39	6	
1	0	0	0	0	512	428	0	567	39	7	
2	0	0	0	0	503	423	0	561	38	7	
3	0	0	0	0	508	423	0	548	38	6	
4	0	0	0	0	508	424	0	532	38	6	
5	0	0	0	0	503	423	0	517	38	6	
6	0	0	0	0	509	419	0	505	39	6	
7	0	0	0	0	503	414	0	497	39	6	
8	0	0	0	0	504	409	0	489	39	6	
9	0	0	0	0	507	409	0	482	39	7	
10	0	0	0	0	510	408	0	480	39	7	
11	0	0	0	0	509	407	0	480	38	6	
12	0	0	0	0	508	411	0	480	38	6	
13	0	0	0	0	496	414	0	482	38	6	
14	0	0	0	0	504	417	0	485	38	6	
15	0	0	0	0	507	421	0	484	39	6	
0	0	0	0	0	509	425	0	480	39	6	
1	0	0	0	0	508	429	0	477	39	7	
2	0	0	0	0	508	432	0	476	39	7	
3	0	0	0	0	505	437	0	480	38	6	
4	0	0	0	0	513	439	0	481	39	6	
5	0	0	0	0	516	440	0	481	39	6	
6	0	0	0	0	507	441	0	482	38	6	
7	0	0	0	0	505	445	0	480	39	6	
8	0	0	0	0	504	449	0	481	39	6	
9	0	0	0	0	511	452	0	478	39	7	
10	0	0	0	0	510	449	0	477	39	7	
11	0	0	0	0	506	447	0	480	38	7	
12	0	0	0	0	504	443	0	482	39	6	
13	0	0	0	0	512	437	0	485	38	6	
14	0	0	0	0	507	434	0	486	38	6	
15	0	0	0	0	508	435	0	484	39	6	
0	0	0	0	0	509	433	0	483	38	6	
1	0	0	0	0	508	432	0	478	38	6	
2	0	0	0	0	510	431	0	480	38	7	
3	0	0	0	0	507	435	0	483	38	7	
4	0	0	0	0	504	442	0	484	38	6	
5	0	0	0	0	501	448	0	486	38	7	
6	0	0	0	0	504	451	0	487	39	6	
7	0	0	0	0	504	452	0	487	39	6	
8	0	0	0	0	510	450	0	492	39	6	
9	0	0	0	0	515	448	0	480	39	6	
10	0	0	0	0	511	450	0	480	38	7	
11	0	0	0	0	508	454	0	480	38	7	
12	0	0	0	0	502	455	0	480	38	6	
13	0	0	0	0	502	456	0	481	38	6	
14	0	0	0	0	509	454	0	482	38	6	
15	0	0	0	0	511	452	0	481	39	6	
0	0	0	0	0	513	451	0	480	39	6	
1	0	0	0	0	507	452	0	475	38	6	
2	0	0	0	0	504	454	0	474	38	7	
3	0	0	0	0	512	454	0	493	38	7	
4	0	0	0	0	501	449	0	479	38	7	
5	0	0	0	0	504	447	0	480	39	6	
6	0	0	0	0	502	444	0	483	38	6	
7	0	0	0	0	503	440	0	480	39	6	
8	0	0	0	0	508	433	0	477	39	6	
9	0	0	0	0	512	430	0	471	38	6	
10	0	0	0	0	510	431	0	473	39	6	
11	0	0	0	0	501	434	0	487	38	7	
12	0	0	0	0	511	440	0	478	39	7	
13	0	0	0	0	509	447	0	479	39	6	
14	0	0	0	0	504	452	0	480	39	7	
15	0	0	0	0	511	458	0	478	39	6	
0	0	0	0	0	510	467	0	477	39	6	
1	0	0	0	0	505	476	0	472	39	6	
2	0	0	0	0	502	481	0	473	39	6	
3	0	0	0	0	508	484	0	494	38	7	
4	0	0	0	0	516	487	0	518	39	7	
5	0	0	0	0	504	492	0	529	39	6	
6	0	0	0	0	497	495	0	554	39	6	
7	0	0	0	0	513	496	0	553	39	6	
8	0	0	0	0	502	494	0	557	39	6	
9	0	0	0	0	503	490	0	563	39	6	
10	0	0	0	0	506	486	0	551	39	6	
11	0	0	0	0	507	482	0	537	38	6	
12	0	0	0	0	506	481	0	541	39	7	
13	0	0	0	0	511	481	0	544	39	7	
14	0	0	0	0	511	483	0	546	38	6	
15	0	0	0	0	506	483	0	560	39	6	
0	0	0	0	0	511	483	0	552	39	6	
1	0	0	0	0	507	481	0	558	39	6	
2	0	0	0	0	505	476	0	561	39	6	
3	0	0	0	0	510	469	0	562	38	6	
4	0	0	0	0	508	463	0	568	39	7	
5	0	0	0	0	512	460	0	558	39	7	
6	0	0	0	0	508	463	0	564	39	6	
7	0	0	0	0	503	467	0	562	39	7	
8	0	0	0	0	507	471	0	557	39	6	
9	0	0	0	0	502	473	0	563	39	6	
10	0	0	0	0	511	478	0	555	39	6	
11	0	0	0	0	509	480	0	560	38	6	
12	0	0	0	0	511	482	0	561	38	7	
13	0	0	0	0	510	484	0	558	39	7	
14	0	0	0	0	504	484	0	570	39	6	
15	0	0	0	0	508	483	0	562	39	6	
0	0	0	0	0	513	481	0	565	39	6	
1	0	0	0	0	507	478	0	564	39	6	
2	0	0	0	0	508	476	0	557	38	6	
3	0	0	0	0	507	476	0	568	38	6	
4	0	0	0	0	504	476	0	561	39	6	
5	0	0	0	0	510	479	0	555	39	7	
6	0	0	0	0	504	486	0	559	39	6	
7	0	0	0	0	499	488	0	564	39	6	
8	0	0	0	0	508	484	0	556	39	6	
9	0	0	0	0	508	478	0	550	39	6	
10	0	0	0	0	510	471	0	533	39	6	
11	0	0	0	0	506	467	0	520	38	6	
12	0	0	0	0	507	476	0	511	39	6	
13	0	0	0	0	508	488	0	503	38	7	
14	0	0	0	0	507	496	0	496	39	7	
15	0	0	0	0	510	498	0	494	39	6	
0	0	0	0	0	508	498	0	490	39	7	
1	0	0	0	0	507	496	0	485	39	6	
2	0	0	0	0	508	494	0	485	39	6	
3	0	0	0	0	508	495	0	486	38	6	
4	0	0	0	0	503	498	0	492	39	6	
5	0	0	0	0	508	501	0	489	38	7	
6	0	0	0	0	516	504	0	490	39	7	
7	0	0	0	0	501	506	0	490	39	6	
8	0	0	0	0	511	504	0	486	38	6	
9	0	0	0	0	518	499	0	483	39	6	
10	0	0	0	0	511	498	0	484	38	6	
11	0	0	0	0	515	501	0	487	38	6	
12	0	0	0	0	507	504	0	492	39	6	
13	0	0	0	0	505	507	0	492	39	6	
14	0	0	0	0	506	508	0	490	39	7	
15	0	0	0	0	506	508	0	493	39	7	
0	0	0	0	0	510	509	0	484	39	6	
1	0	0	0	0	512	509	0	482	39	6	
2	0	0	0	0	500	508	0	481	39	6	
3	0	0	0	0	507	507	0	482	38	6	
4	0	0	0	0	509	508	0	483	39	6	
5	0	0	0	0	505	508	0	496	39	6	
6	0	0	0	0	512	507	0	524	39	7	
7	0	0	0	0	512	504	0	536	39	7	
8	0	0	0	0	498	499	0	551	38	6	
9	0	0	0	0	509	496	0	558	38	7	
10	0	0	0	0	514	492	0	558	39	6	
11	0	0	0	0	502	487	0	570	38	6	
12	0	0	0	0	506	484	0	564	39	6	
13	0	0	0	0	508	482	0	572	38	6	
14	0	0	0	0	503	482	0	575	38	7	
15	0	0	0	0	511	483	0	572	39	7	
0	0	0	0	0	508	482	0	576	39	6	
1	0	0	0	0	514	482	0	564	38	6	
2	0	0	0	0	507	482	0	556	38	6	
3	0	0	0	0	512	482	0	543	38	6	
4	0	0	0	0	502	484	0	530	39	6	
5	0	0	0	0	511	491	0	518	38	6	
6	0	0	0	0	514	499	0	508	38	6	
7	0	0	0	0	509	504	0	513	39	7	
8	0	0	0	0	507	509	0	495	38	7	
9	0	0	0	0	503	513	0	487	39	6	
10	0	0	0	0	502	513	0	488	39	6	
11	0	0	0	0	509	513	0	487	38	6	
12	0	0	0	0	511	511	0	485	39	6	
13	0	0	0	0	507	510	0	486	39	6	
14	0	0	0	0	508	506	0	486	39	6	
15	0	0	0	0	505	500	0	487	39	7	
0	0	0	0	0	514	497	0	483	39	7	
1	0	0	0	0	513	494	0	479	39	6	
2	0	0	0	0	501	490	0	486	39	7	
3	0	0	0	0	504	487	0	483	38	6	
4	0	0	0	0	509	486	0	487	38	6	
5	0	0	0	0	514	484	0	491	39	6	
6	0	0	0	0	506	486	0	493	39	6	
7	0	0	0	0	505	488	0	496	39	7	
8	0	0	0	0	512	494	0	489	39	7	
9	0	0	0	0	512	502	0	485	39	6	
10	0	0	0	0	502	506	0	486	39	6	
11	0	0	0	0	501	505	0	488	38	6	
12	0	0	0	0	504	506	0	492	38	6	
13	0	0	0	0	507	506	0	492	39	6	
14	0	0	0	0	505	508	0	500	39	6	
15	0	0	0	0	512	511	0	535	39	6	
0	0	0	0	0	516	512	0	533	39	7	
1	0	0	0	0	508	509	0	527	39	7	
2	0	0	0	0	507	511	0	530	39	6	
3	0	0	0	0	506	512	0	549	38	6	
4	0	0	0	0	508	511	0	554	39	6	
5	0	0	0	0	508	510	0	564	39	6	
6	0	0	0	0	510	507	0	572	38	6	
7	0	0	0	0	505	500	0	581	39	6	
8	0	0	0	0	506	498	0	577	39	7	
9	0	0	0	0	506	499	0	568	39	7	
10	0	0	0	0	508	500	0	574	39	6	
11	0	0	0	0	507	499	0	580	38	7	
12	0	0	0	0	508	499	0	580	39	6	
13	0	0	0	0	507	497	0	586	38	6	
14	0	0	0	0	508	496	0	576	39	6	
15	0	0	0	0	504	497	0	596	39	6	
0	0	0	0	0	504	499	0	576	38	7	
1	0	0	0	0	512	504	0	568	39	7	
2	0	0	0	0	504	509	0	559	39	7	
3	0	0	0	0	506	511	0	544	38	7	
4	0	0	0	0	509	513	0	534	39	6	
5	0	0	0	0	507	515	0	521	38	6	
6	0	0	0	0	515	518	0	511	39	6	
7	0	0	0	0	506	518	0	505	39	6	
8	0	0	0	0	503	519	0	499	39	6	
9	0	0	0	0	511	522	0	495	39	7	
10	0	0	0	0	508	524	0	491	38	7	
11	0	0	0	0	500	520	0	490	38	6	
12	0	0	0	0	513	513	0	492	38	7	
13	0	0	0	0	507	505	0	491	38	6	
14	0	0	0	0	503	495	0	493	39	6	
15	0	0	0	0	506	494	0	489	39	6	
0	0	0	0	0	506	500	0	486	39	6	
1	0	0	0	0	507	505	0	483	39	7	
2	0	0	0	0	506	511	0	484	38	7	
3	0	0	0	0	508	516	0	487	38	6	
4	0	0	0	0	509	516	0	489	38	7	
5	0	0	0	0	506	515	0	492	39	6	
6	0	0	0	0	503	515	0	496	39	6	
7	0	0	0	0	504	515	0	495	39	6	
8	0	0	0	0	511	513	0	492	38	6	
9	0	0	0	0	509	511	0	491	38	7	
10	0	0	0	0	507	511	0	490	39	7	
11	0	0	0	0	512	512	0	493	38	7	
12	0	0	0	0	507	512	0	493	38	6	
13	0	0	0	0	515	510	0	495	38	6	
14	0	0	0	0	501	508	0	508	38	6	
15	0	0	0	0	504	508	0	529	39	6	
0	0	0	0	0	508	504	0	532	39	6	
1	0	0	0	0	514	496	0	552	38	6	
2	0	0	0	0	505	488	0	557	39	7	
3	0	0	0	0	503	483	0	561	38	7	
4	0	0	0	0	507	479	0	575	39	6	
5	0	0	0	0	511	479	0	572	39	7	
6	0	0	0	0	508	484	0	582	38	6	
7	0	0	0	0	506	491	0	572	39	6	
8	0	0	0	0	508	497	0	573	39	6	
9	0	0	0	0	511	499	0	570	39	6	
10	0	0	0	0	508	497	0	563	38	7	
11	0	0	0	0	505	495	0	557	38	7	
12	0	0	0	0	504	494	0	543	39	6	
13	0	0	0	0	507	500	0	529	38	7	
14	0	0	0	0	504	508	0	518	39	6	
15	0	0	0	0	510	512	0	510	39	6	
0	0	0	0	0	506	515	0	503	39	6	
1	0	0	0	0	506	517	0	513	39	6	
2	0	0	0	0	511	518	0	493	39	7	
3	0	0	0	0	507	518	0	495	38	7	
4	0	0	0	0	507	515	0	494	39	7	
5	0	0	0	0	500	511	0	496	39	7	
6	0	0	0	0	508	506	0	494	39	6	
7	0	0	0	0	510	501	0	492	39	6	
8	0	0	0	0	509	500	0	487	39	6	
9	0	0	0	0	505	504	0	484	39	6	
10	0	0	0	0	507	510	0	485	39	7	
11	0	0	0	0	507	511	0	486	38	7	
12	0	0	0	0	508	513	0	487	38	7	
13	0	0	0	0	513	512	0	488	39	6	
14	0	0	0	0	513	509	0	491	38	7	
15	0	0	0	0	514	504	0	489	39	6	
0	0	0	0	0	504	501	0	486	39	6	
1	0	0	0	0	503	503	0	484	38	6	
2	0	0	0	0	503	509	0	488	38	6	
3	0	0	0	0	508	516	0	487	38	7	
4	0	0	0	0	505	520	0	488	38	7	
5	0	0	0	0	509	523	0	487	38	7	
6	0	0	0	0	505	521	0	486	38	7	
7	0	0	0	0	508	513	0	496	39	6	
8	0	0	0	0	507	506	0	520	38	6	
9	0	0	0	0	504	502	0	529	39	6	
10	0	0	0	0	511	501	0	545	38	6	
11	0	0	0	0	511	499	0	554	38	7	
12	0	0	0	0	507	495	0	555	39	7	
13	0	0	0	0	512	493	0	577	39	7	
14	0	0	0	0	508	492	0	566	39	7	
15	0	0	0	0	503	493	0	572	39	6	
0	0	0	0	0	513	496	0	564	39	6	
1	0	0	0	0	508	502	0	556	39	6	
2	0	0	0	0	508	507	0	561	39	6	
3	0	0	0	0	502	511	0	555	38	7	
4	0	0	0	0	502	514	0	549	39	7	
5	0	0	0	0	518	514	0	535	38	7	
6	0	0	0	0	509	513	0	522	39	6	
7	0	0	0	0	500	513	0	510	39	7	
8	0	0	0	0	500	516	0	501	39	6	
9	0	0	0	0	505	519	0	492	39	6	
10	0	0	0	0	504	521	0	486	38	6	
11	0	0	0	0	509	525	0	483	38	6	
12	0	0	0	0	510	526	0	486	39	7	
13	0	0	0	0	515	524	0	483	39	7	
14	0	0	0	0	512	524	0	482	38	7	
15	0	0	0	0	505	523	0	480	39	7	
0	0	0	0	0	514	520	0	476	39	6	
1	0	0	0	0	511	519	0	473	39	6	
2	0	0	0	0	510	519	0	475	39	6	
3	0	0	0	0	507	519	0	478	38	6	
4	0	0	0	0	507	518	0	480	38	7	
5	0	0	0	0	507	516	0	484	39	7	
6	0	0	0	0	506	514	0	486	38	7	
7	0	0	0	0	510	512	0	486	39	7	
8	0	0	0	0	506	510	0	483	38	6	
9	0	0	0	0	511	509	0	484	38	6	
10	0	0	0	0	507	507	0	485	39	6	
11	0	0	0	0	507	503	0	488	38	6	
12	0	0	0	0	511	498	0	488	39	6	
13	0	0	0	0	508	497	0	488	39	7	
14	0	0	0	0	503	495	0	489	38	7	
15	0	0	0	0	505	493	0	488	39	6	
0	0	0	0	0	508	494	0	491	38	7	
1	0	0	0	0	507	496	0	516	39	6	
2	0	0	0	0	514	497	0	534	39	6	
3	0	0	0	0	504	499	0	555	38	6	
4	0	0	0	0	510	501	0	570	39	6	
5	0	0	0	0	509	501	0	572	39	7	
6	0	0	0	0	502	503	0	581	38	7	
7	0	0	0	0	511	507	0	581	39	6	
8	0	0	0	0	510	511	0	577	38	7	
9	0	0	0	0	510	513	0	579	39	6	
10	0	0	0	0	507	514	0	569	39	6	
11	0	0	0	0	504	515	0	577	38	6	
12	0	0	0	0	503	516	0	572	39	6	
13	0	0	0	0	512	518	0	563	38	7	
14	0	0	0	0	512	516	0	559	38	7	
15	0	0	0	0	499	515	0	568	39	7	
0	0	0	0	0	502	515	0	561	38	7	
1	0	0	0	0	511	512	0	553	38	6	
2	0	0	0	0	513	511	0	539	39	6	
3	0	0	0	0	510	510	0	524	38	6	
4	0	0	0	0	504	507	0	517	39	6	
5	0	0	0	0	502	503	0	504	39	6	
6	0	0	0	0	509	502	0	497	39	7	
7	0	0	0	0	510	500	0	492	39	7	
8	0	0	0	0	502	497	0	487	39	6	
9	0	0	0	0	512	494	0	486	39	7	
10	0	0	0	0	505	495	0	483	39	6	
11	0	0	0	0	511	495	0	483	38	6	
12	0	0	0	0	510	494	0	484	38	6	
13	0	0	0	0	508	494	0	490	38	6	
14	0	0	0	0	510	495	0	490	39	7	
15	0	0	0	0	504	498	0	490	39	7	
0	0	0	0	0	505	499	0	487	39	6	
1	0	0	0	0	507	501	0	486	39	7	
2	0	0	0	0	505	501	0	486	39	6	
3	0	0	0	0	512	499	0	489	38	6	
4	0	0	0	0	503	500	0	490	39	6	
5	0	0	0	0	506	502	0	490	39	6	
6	0	0	0	0	502	504	0	494	38	7	
7	0	0	0	0	509	506	0	489	39	7	
8	0	0	0	0	504	507	0	488	39	7	
9	0	0	0	0	514	508	0	483	39	6	
10	0	0	0	0	507	506	0	483	39	6	
11	0	0	0	0	510	504	0	486	38	6	
12	0	0	0	0	500	503	0	489	39	6	
13	0	0	0	0	505	501	0	494	38	6	
14	0	0	0	0	504	503	0	496	38	6	
15	0	0	0	0	512	510	0	495	39	7	
0	0	0	0	0	515	512	0	491	38	7	
1	0	0	0	0	511	512	0	491	39	6	
2	0	0	0	0	503	510	0	490	39	7	
3	0	0	0	0	503	507	0	492	38	6	
4	0	0	0	0	503	506	0	492	39	6	
5	0	0	0	0	508	508	0	496	39	6	
6	0	0	0	0	511	511	0	496	39	6	
7	0	0	0	0	511	513	0	499	39	7	
8	0	0	0	0	511	513	0	494	38	7	
9	0	0	0	0	508	512	0	489	39	6	
10	0	0	0	0	510	514	0	489	38	7	
11	0	0	0	0	500	515	0	490	38	6	
12	0	0	0	0	510	517	0	494	38	6	
13	0	0	0	0	511	518	0	497	38	6	
14	0	0	0	0	504	517	0	501	39	6	
15	0	0	0	0	512	515	0	515	39	6	
0	0	0	0	0	500	512	0	537	39	7	
1	0	0	0	0	507	513	0	543	39	7	
2	0	0	0	0	517	514	0	564	39	7	
3	0	0	0	0	503	516	0	573	38	6	
4	0	0	0	0	510	512	0	579	39	6	
5	0	0	0	0	504	506	0	588	39	6	
6	0	0	0	0	509	502	0	582	39	6	
7	0	0	0	0	505	501	0	589	39	6	
8	0	0	0	0	514	508	0	582	39	7	
9	0	0	0	0	508	513	0	579	39	7	
10	0	0	0	0	504	514	0	585	39	6	
11	0	0	0	0	507	516	0	582	38	7	
12	0	0	0	0	504	512	0	589	38	6	
13	0	0	0	0	512	511	0	584	38	6	
14	0	0	0	0	509	513	0	580	39	6	
15	0	0	0	0	507	515	0	586	39	6	
0	0	0	0	0	511	517	0	578	39	7	
1	0	0	0	0	503	517	0	584	39	7	
2	0	0	0	0	505	517	0	580	39	6	
3	0	0	0	0	510	517	0	571	38	7	
4	0	0	0	0	511	516	0	563	39	6	
5	0	0	0	0	509	516	0	542	39	6	
6	0	0	0	0	511	515	0	530	39	6	
7	0	0	0	0	504	513	0	516	39	6	
8	0	0	0	0	508	512	0	506	39	6	
9	0	0	0	0	505	511	0	494	39	7	
10	0	0	0	0	510	510	0	491	39	7	
11	0	0	0	0	507	508	0	491	38	7	
12	0	0	0	0	510	507	0	487	39	6	
13	0	0	0	0	513	509	0	488	39	6	
14	0	0	0	0	502	512	0	489	39	6	
15	0	0	0	0	509	517	0	489	39	6	
0	0	0	0	0	506	520	0	483	39	6	
1	0	0	0	0	510	520	0	480	39	7	
2	0	0	0	0	508	519	0	480	39	7	
3	0	0	0	0	506	519	0	481	38	6	
4	0	0	0	0	501	520	0	484	39	7	
5	0	0	0	0	506	522	0	494	38	6	
6	0	0	0	0	510	522	0	485	39	6	
7	0	0	0	0	510	521	0	487	39	6	
8	0	0	0	0	502	517	0	482	39	6	
9	0	0	0	0	507	515	0	484	39	7	
10	0	0	0	0	508	515	0	482	39	7	
11	0	0	0	0	507	515	0	485	38	7	
12	0	0	0	0	505	515	0	486	39	7	
13	0	0	0	0	511	515	0	488	39	6	
14	0	0	0	0	506	513	0	492	39	6	
15	0	0	0	0	507	513	0	492	39	6	
0	0	0	0	0	507	514	0	512	38	6	
1	0	0	0	0	500	519	0	526	39	7	
2	0	0	0	0	508	525	0	537	39	7	
3	0	0	0	0	505	528	0	560	38	7	
4	0	0	0	0	503	525	0	565	39	7	
5	0	0	0	0	514	523	0	574	38	6	
6	0	0	0	0	513	525	0	577	38	6	
7	0	0	0	0	509	527	0	573	39	6	
8	0	0	0	0	504	524	0	581	38	6	
9	0	0	0	0	512	521	0	574	39	6	
10	0	0	0	0	506	521	0	579	38	7	
11	0	0	0	0	502	521	0	576	38	7	
12	0	0	0	0	503	515	0	568	39	6	
13	0	0	0	0	505	506	0	556	39	7	
14	0	0	0	0	503	496	0	542	39	6	
15	0	0	0	0	512	490	0	546	39	6	
0	0	0	0	0	508	489	0	547	38	6	
1	0	0	0	0	505	489	0	543	39	6	
2	0	0	0	0	504	492	0	540	39	7	
3	0	0	0	0	503	495	0	529	38	7	
4	0	0	0	0	510	495	0	518	38	7	
5	0	0	0	0	509	496	0	514	38	7	
6	0	0	0	0	503	495	0	503	39	6	
7	0	0	0	0	507	496	0	499	39	6	
8	0	0	0	0	508	501	0	498	39	6	
9	0	0	0	0	511	507	0	494	39	6	
10	0	0	0	0	507	512	0	495	38	7	
11	0	0	0	0	510	515	0	494	38	7	
12	0	0	0	0	499	518	0	494	38	7	
13	0	0	0	0	512	520	0	493	39	7	
14	0	0	0	0	511	519	0	492	39	6	
15	0	0	0	0	509	515	0	492	39	6	
0	0	0	0	0	516	512	0	485	39	6	
1	0	0	0	0	508	508	0	480	39	6	
2	0	0	0	0	502	507	0	496	39	6	
3	0	0	0	0	504	502	0	482	38	7	
4	0	0	0	0	505	497	0	485	38	7	
5	0	0	0	0	504	492	0	486	39	6	
6	0	0	0	0	505	492	0	488	38	7	
7	0	0	0	0	502	492	0	485	39	6	
8	0	0	0	0	512	490	0	481	39	6	
9	0	0	0	0	503	487	0	478	39	6	
10	0	0	0	0	504	482	0	480	39	6	
11	0	0	0	0	513	477	0	479	38	7	
12	0	0	0	0	510	478	0	479	39	7	
13	0	0	0	0	504	483	0	480	39	7	
14	0	0	0	0	511	487	0	480	38	7	
15	0	0	0	0	504	488	0	480	39	6	
0	0	0	0	0	510	489	0	480	39	6	
1	0	0	0	0	513	492	0	502	39	6	
2	0	0	0	0	511	498	0	517	39	6	
3	0	0	0	0	504	504	0	530	38	7	
4	0	0	0	0	505	507	0	546	39	7	
5	0	0	0	0	505	508	0	548	39	7	
6	0	0	0	0	508	508	0	559	38	7	
7	0	0	0	0	510	504	0	558	39	6	
8	0	0	0	0	508	503	0	556	39	6	
9	0	0	0	0	507	502	0	557	39	6	
10	0	0	0	0	506	502	0	566	39	6	
11	0	0	0	0	501	505	0	556	38	7	
12	0	0	0	0	509	506	0	551	39	7	
13	0	0	0	0	508	503	0	545	38	7	
14	0	0	0	0	508	500	0	543	38	7	
15	0	0	0	0	507	497	0	554	39	7	
0	0	0	0	0	508	498	0	545	39	6	
1	0	0	0	0	512	504	0	539	38	6	
2	0	0	0	0	504	511	0	527	38	6	
3	0	0	0	0	510	515	0	513	38	6	
4	0	0	0	0	511	515	0	502	38	7	
5	0	0	0	0	505	515	0	494	38	7	
6	0	0	0	0	504	513	0	485	39	7	
7	0	0	0	0	508	510	0	481	39	7	
8	0	0	0	0	504	508	0	474	38	6	
9	0	0	0	0	509	504	0	468	38	6	
10	0	0	0	0	509	494	0	465	39	6	
11	0	0	0	0	504	485	0	463	38	6	
12	0	0	0	0	508	479	0	466	38	7	
13	0	0	0	0	507	473	0	465	39	7	
14	0	0	0	0	516	467	0	467	38	7	
15	0	0	0	0	504	459	0	467	39	7	
0	0	0	0	0	506	454	0	462	38	6	
1	0	0	0	0	509	453	0	459	39	6	
2	0	0	0	0	504	459	0	460	39	6	
3	0	0	0	0	512	465	0	463	38	6	
4	0	0	0	0	513	467	0	467	39	6	
5	0	0	0	0	508	470	0	465	39	7	
6	0	0	0	0	512	473	0	466	38	7	
7	0	0	0	0	506	478	0	466	39	6	
8	0	0	0	0	505	481	0	464	39	7	
9	0	0	0	0	508	487	0	464	39	6	
10	0	0	0	0	505	495	0	461	39	6	
11	0	0	0	0	510	502	0	463	38	6	
12	0	0	0	0	502	512	0	467	39	6	
13	0	0	0	0	505	525	0	474	39	7	
14	0	0	0	0	504	541	0	502	38	7	
15	0	0	0	0	507	562	0	512	39	7	
0	0	0	0	0	509	585	0	523	39	7	
1	0	0	0	0	507	607	0	539	39	6	
2	0	0	0	0	507	627	0	541	39	6	
3	0	0	0	0	506	647	0	553	38	6	
4	0	0	0	0	510	666	0	550	39	6	
5	0	0	0	0	507	686	0	551	39	7	
6	0	0	0	0	505	704	0	560	39	7	
7	0	0	0	0	511	724	0	552	39	7	
8	0	0	0	0	510	745	0	558	38	7	
9	0	0	0	0	508	766	0	555	39	6	
10	0	0	0	0	501	782	0	547	39	6	
11	0	0	0	0	504	795	0	536	38	6	
12	0	0	0	0	515	802	0	519	39	6	
13	0	0	0	0	507	809	0	504	39	6	
14	0	0	0	0	514	816	0	492	38	7	
15	0	0	0	0	504	817	0	484	39	7	
0	0	0	0	0	502	809	0	481	39	6	
1	0	0	0	0	505	800	0	475	38	7	
2	0	0	0	0	511	790	0	470	39	6	
3	0	0	0	0	508	776	0	468	38	6	
4	0	0	0	0	510	763	0	469	39	6	
5	0	0	0	0	506	750	0	475	39	6	
6	0	0	0	0	502	738	0	476	38	7	
7	0	0	0	0	505	724	0	475	39	7	
8	0	0	0	0	508	709	0	473	39	7	
9	0	0	0	0	511	689	0	472	38	7	
10	0	0	0	0	504	666	0	476	38	6	
11	0	0	0	0	516	637	0	478	38	6	
12	0	0	0	0	513	605	0	480	38	6	
13	0	0	0	0	509	571	0	484	39	6	
14	0	0	0	0	504	537	0	485	39	7	
15	0	0	0	0	509	507	0	486	39	7	
0	0	0	0	0	508	480	0	483	38	7	
1	0	0	0	0	501	448	0	480	39	7	
2	0	0	0	0	511	422	0	483	39	6	
3	0	0	0	0	508	404	0	487	38	6	
4	0	0	0	0	514	387	0	490	39	6	
5	0	0	0	0	502	373	0	493	38	6	
6	0	0	0	0	504	366	0	495	38	6	
7	0	0	0	0	506	366	0	516	39	7	
8	0	0	0	0	515	366	0	529	39	7	
9	0	0	0	0	511	368	0	537	39	7	
10	0	0	0	0	506	371	0	559	39	7	
11	0	0	0	0	503	375	0	563	38	6	
12	0	0	0	0	504	379	0	573	38	6	
13	0	0	0	0	505	383	0	574	39	6	
14	0	0	0	0	499	388	0	573	38	6	
15	0	0	0	0	511	396	0	579	39	7	
0	0	0	0	0	504	403	0	567	39	7	
1	0	0	0	0	507	411	0	569	39	7	
2	0	0	0	0	513	417	0	572	39	7	
3	0	0	0	0	512	422	0	567	38	6	
4	0	0	0	0	503	427	0	559	38	6	
5	0	0	0	0	504	427	0	545	38	6	
6	0	0	0	0	514	423	0	539	38	6	
7	0	0	0	0	507	423	0	522	39	7	
8	0	0	0	0	510	425	0	512	39	7	
9	0	0	0	0	510	430	0	504	38	7	
10	0	0	0	0	510	438	0	500	39	7	
11	0	0	0	0	507	446	0	497	38	6	
12	0	0	0	0	501	451	0	497	38	6	
13	0	0	0	0	511	455	0	498	39	6	
14	0	0	0	0	512	455	0	500	39	6	
15	0	0	0	0	508	456	0	500	39	6	
0	0	0	0	0	507	457	0	496	39	7	
1	0	0	0	0	505	460	0	494	38	7	
2	0	0	0	0	503	460	0	494	39	6	
3	0	0	0	0	508	457	0	497	38	7	
4	0	0	0	0	503	455	0	499	39	6	
5	0	0	0	0	511	451	0	499	39	6	
6	0	0	0	0	510	452	0	499	38	6	
7	0	0	0	0	511	455	0	497	39	6	
8	0	0	0	0	507	457	0	495	38	7	
9	0	0	0	0	508	462	0	490	39	7	
10	0	0	0	0	504	464	0	489	38	7	
11	0	0	0	0	505	464	0	492	38	7	
12	0	0	0	0	508	464	0	495	38	6	
13	0	0	0	0	507	463	0	499	39	6	
14	0	0	0	0	502	461	0	500	38	6	
15	0	0	0	0	501	462	0	499	39	6	
0	0	0	0	0	508	463	0	521	38	6	
1	0	0	0	0	513	463	0	531	39	7	
2	0	0	0	0	509	463	0	539	39	7	
3	0	0	0	0	510	462	0	562	38	7	
4	0	0	0	0	511	463	0	572	39	6	
5	0	0	0	0	502	468	0	579	38	6	
6	0	0	0	0	507	474	0	587	39	6	
7	0	0	0	0	501	479	0	580	39	6	
8	0	0	0	0	509	481	0	589	38	6	
9	0	0	0	0	509	482	0	583	39	7	
10	0	0	0	0	509	483	0	582	39	7	
11	0	0	0	0	504	481	0	590	38	6	
12	0	0	0	0	513	479	1	585	39	7	
13	0	0	0	0	509	477	0	580	39	6	
14	0	0	0	0	511	480	0	585	38	6	
15	0	0	0	0	503	484	0	583	39	6	
0	0	0	0	0	508	485	0	573	39	6	
1	0	0	0	0	508	486	0	562	39	7	
2	0	0	0	0	503	486	0	550	39	7	
3	0	0	0	0	504	486	0	535	38	7	
4	0	0	0	0	508	485	0	524	39	7	
5	0	0	0	0	513	483	0	517	39	6	
6	0	0	0	0	509	483	0	512	39	6	
7	0	0	0	0	508	481	0	508	39	6	
8	0	0	0	0	508	481	0	504	39	6	
9	0	0	0	0	511	484	0	501	39	7	
10	0	0	0	0	505	487	0	501	39	7	
11	0	0	0	0	505	487	0	501	38	7	
12	0	0	0	0	512	490	0	501	38	7	
13	0	0	0	0	509	493	0	502	39	6	
14	0	0	0	0	515	492	0	502	38	6	
15	0	0	0	0	508	489	0	500	39	6	
0	0	0	0	0	507	488	0	499	38	6	
1	0	0	0	0	506	487	0	495	39	6	
2	0	0	0	0	507	484	0	495	39	7	
3	0	0	0	0	500	481	0	495	38	7	
4	0	0	0	0	507	482	0	495	39	7	
5	0	0	0	0	501	486	0	500	39	7	
6	0	0	0	0	509	491	0	499	39	6	
7	0	0	0	0	513	494	0	494	39	6	
8	0	0	0	0	501	495	0	489	39	6	
9	0	0	0	0	511	499	0	486	39	6	
10	0	0	0	0	513	505	0	491	39	7	
11	0	0	0	0	514	509	0	492	38	7	
12	0	0	0	0	512	510	0	495	38	7	
13	0	0	0	0	500	508	0	497	38	7	
14	0	0	0	0	511	504	0	498	39	6	
15	0	0	0	0	514	503	0	499	39	6	
0	0	0	0	0	505	501	0	495	39	6	
1	0	0	0	0	504	499	0	492	39	6	
2	0	0	0	0	501	500	0	491	38	7	
3	0	0	0	0	510	505	0	492	38	7	
4	0	0	0	0	503	507	0	496	39	7	
5	0	0	0	0	508	507	0	496	39	7	
6	0	0	0	0	509	505	0	496	39	6	
7	0	0	0	0	515	502	0	498	39	6	
8	0	0	0	0	506	500	0	492	39	6	
9	0	0	0	0	504	497	0	490	38	6	
10	0	0	0	0	503	495	0	490	38	6	
11	0	0	0	0	510	491	0	491	38	7	
12	0	0	0	0	510	489	0	493	38	7	
13	0	0	0	0	506	489	0	492	39	7	
14	0	0	0	0	511	493	0	494	39	7	
15	0	0	0	0	506	497	0	492	39	6	
0	0	0	0	0	503	496	0	489	39	6	
1	0	0	0	0	505	493	0	486	38	6	
2	0	0	0	0	508	488	0	488	38	6	
3	0	0	0	0	511	483	0	491	38	7	
4	0	0	0	0	507	482	0	494	39	7	
5	0	0	0	0	504	484	0	492	38	7	
6	0	0	0	0	503	488	0	492	39	7	
7	0	0	0	0	508	492	0	489	39	6	
8	0	0	0	0	509	495	0	488	38	6	
9	0	0	0	0	498	500	0	485	39	6	
10	0	0	0	0	508	507	0	504	39	6	
11	0	0	0	0	512	512	0	527	38	7	
12	0	0	0	0	510	514	0	545	39	7	
13	0	0	0	0	507	514	0	560	39	7	
14	0	0	0	0	505	514	0	558	39	7	
15	0	0	0	0	513	512	0	567	39	6	
0	0	0	0	0	504	510	0	566	39	6	
1	0	0	0	0	508	510	0	559	39	6	
2	0	0	0	0	503	506	0	569	39	6	
3	0	0	0	0	508	506	0	563	38	6	
4	0	0	0	0	511	511	0	569	39	7	
5	0	0	0	0	499	513	0	567	38	7	
6	0	0	0	0	508	514	0	560	38	7	
7	0	0	0	0	505	515	0	566	39	7	
8	0	0	0	0	515	515	0	558	39	6	
9	0	0	0	0	510	516	0	561	38	6	
10	0	0	0	0	505	516	0	560	39	6	
11	0	0	0	0	510	515	0	555	38	6	
12	0	0	0	0	507	515	0	567	39	7	
13	0	0	0	0	506	516	0	558	39	7	
14	0	0	0	0	502	522	0	561	39	7	
15	0	0	0	0	507	527	0	561	39	7	
0	0	0	0	0	511	529	0	553	39	6	
1	0	0	0	0	510	531	0	575	39	6	
2	0	0	0	0	515	538	0	549	39	6	
3	0	0	0	0	506	542	0	542	38	6	
4	0	0	0	0	508	543	0	529	39	7	
5	0	0	0	0	502	544	0	514	39	7	
6	0	0	0	0	506	547	0	503	38	7	
7	0	0	0	0	510	547	0	494	39	7	
8	0	0	0	0	514	547	0	487	39	6	
9	0	0	0	0	502	547	0	482	39	6	
10	0	0	0	0	500	547	0	478	39	6	
11	0	0	0	0	505	547	0	480	38	6	
12	0	0	0	0	511	547	0	476	38	6	
13	0	0	0	0	508	547	0	476	38	7	
14	0	0	0	0	510	549	0	475	38	7	
15	0	0	0	0	512	550	0	473	39	7	
0	0	0	0	0	508	549	0	480	38	7	
1	0	0	0	0	507	550	0	467	39	6	
2	0	0	0	0	508	551	0	466	39	6	
3	0	0	0	0	507	552	0	467	38	6	
4	0	0	0	0	506	553	0	470	39	6	
5	0	0	0	0	512	551	0	477	39	7	
6	0	0	0	0	507	547	0	476	39	7	
7	0	0	0	0	514	544	0	476	39	7	
8	0	0	0	0	511	545	0	474	38	7	
9	0	0	0	0	510	545	0	472	39	6	
10	0	0	0	0	505	543	0	475	39	6	
11	0	0	0	0	511	541	0	475	38	6	
12	0	0	0	0	508	536	0	475	38	6	
13	0	0	0	0	500	532	0	477	39	7	
14	0	0	0	0	507	529	0	477	39	7	
15	0	0	0	0	504	523	0	483	39	7	
0	0	0	0	0	504	516	0	504	39	7	
1	0	0	0	0	506	515	0	513	39	6	
2	0	0	0	0	509	520	0	528	38	6	
3	0	0	0	0	511	533	0	545	38	6	
4	0	0	0	0	507	545	0	547	38	6	
5	0	0	0	0	507	552	0	557	38	6	
6	0	0	0	0	509	558	0	555	39	7	
7	0	0	0	0	501	563	0	554	39	7	
8	0	0	0	0	505	568	0	558	39	7	
9	0	0	0	0	513	573	0	550	39	7	
10	0	0	0	0	508	578	0	555	39	6	
11	0	0	0	0	510	585	0	551	38	6	
12	0	0	0	0	510	588	0	552	39	6	
13	0	0	0	0	506	591	0	534	39	6	
14	0	0	0	0	501	593	0	520	38	7	
15	0	0	0	0	516	595	0	508	39	7	
0	0	0	0	0	505	595	0	497	39	7	
1	0	0	0	0	506	594	0	492	38	7	
2	0	0	0	0	505	594	0	484	39	6	
3	0	0	0	0	508	595	0	481	38	6	
4	0	0	0	0	506	594	0	478	39	6	
5	0	0	0	0	508	590	0	476	39	6	
6	0	0	0	0	509	587	0	473	38	7	
7	0	0	0	0	510	583	0	468	39	7	
8	0	0	0	0	502	579	0	464	38	7	
9	0	0	0	0	500	576	0	462	39	7	
10	0	0	0	0	506	570	0	459	39	6	
11	0	0	0	0	504	566	0	462	38	6	
12	0	0	0	0	507	563	0	462	39	6	
13	0	0	0	0	510	563	0	465	39	6	
14	0	0	0	0	506	564	0	467	38	6	
15	0	0	0	0	513	562	0	464	39	7	
0	0	0	0	0	511	561	0	463	38	7	
1	0	0	0	0	509	562	0	458	38	7	
2	0	0	0	0	504	563	0	459	38	7	
3	0	0	0	0	503	563	0	463	38	6	
4	0	0	0	0	505	564	0	465	39	6	
5	0	0	0	0	511	566	0	467	39	6	
6	0	0	0	0	510	568	0	470	39	6	
7	0	0	0	0	511	570	0	471	39	7	
8	0	0	0	0	510	572	0	472	39	7	
9	0	0	0	0	503	575	0	487	39	7	
10	0	0	0	0	504	577	0	508	38	7	
11	0	0	0	0	516	582	0	522	38	6	
12	0	0	0	0	509	585	0	540	39	6	
13	0	0	0	0	509	586	0	541	39	6	
14	0	0	0	0	508	584	0	548	38	6	
15	0	0	0	0	501	585	0	551	39	7	
0	0	0	0	0	507	583	0	548	39	7	
1	0	0	0	0	504	577	0	556	39	7	
2	0	0	0	0	505	572	0	549	39	7	
3	0	0	0	0	508	568	0	556	38	6	
4	0	0	0	0	507	564	0	557	39	6	
5	0	0	0	0	508	563	0	550	39	6	
6	0	0	0	0	513	563	0	544	39	6	
7	0	0	0	0	507	560	0	552	39	6	
8	0	0	0	0	504	558	0	549	39	7	
9	0	0	0	0	502	556	0	542	39	7	
10	0	0	0	0	506	551	0	530	39	7	
11	0	0	0	0	513	548	0	520	38	7	
12	0	0	0	0	509	544	0	508	39	6	
13	0	0	0	0	515	539	0	498	38	6	
14	0	0	0	0	515	536	0	491	38	6	
15	0	0	0	0	502	537	0	485	39	6	
0	0	0	0	0	513	540	0	485	39	7	
1	0	0	0	0	507	540	0	480	39	7	
2	0	0	0	0	510	539	0	478	39	7	
3	0	0	0	0	507	541	0	490	38	7	
4	0	0	0	0	505	538	0	479	39	6	
5	0	0	0	0	504	530	0	481	39	6	
6	0	0	0	0	508	522	0	482	39	6	
7	0	0	0	0	503	515	0	480	39	6	
8	0	0	0	0	506	510	0	479	38	6	
9	0	0	0	0	505	510	0	474	38	7	
10	0	0	0	0	503	511	0	475	39	7	
11	0	0	0	0	503	510	0	479	38	7	
12	0	0	0	0	506	504	0	482	39	6	
13	0	0	0	0	513	501	0	487	39	6	
14	0	0	0	0	516	497	0	486	38	6	
15	0	0	0	0	507	494	0	487	39	6	
0	0	0	0	0	510	488	0	484	39	6	
1	0	0	0	0	517	484	0	482	39	7	
2	0	0	0	0	508	480	0	486	39	7	
3	0	0	0	0	500	472	0	485	38	7	
4	0	0	0	0	499	463	0	488	38	7	
5	0	0	0	0	511	458	0	492	39	6	
6	0	0	0	0	505	457	0	514	38	6	
7	0	0	0	0	510	455	0	530	39	6	
8	0	0	0	0	504	451	0	538	39	6	
9	0	0	0	0	504	448	0	558	38	7	
10	0	0	0	0	506	445	0	573	39	7	
11	0	0	0	0	511	443	0	570	38	7	
12	0	0	0	0	512	439	0	576	39	7	
13	0	0	0	0	512	434	0	575	38	6	
14	0	0	0	0	501	428	0	583	39	6	
15	0	0	0	0	505	418	0	573	39	6	
0	0	0	0	0	513	414	0	572	39	6	
1	0	0	0	0	512	412	0	571	39	6	
2	0	0	0	0	511	412	0	566	39	7	
3	0	0	0	0	502	414	0	557	38	7	
4	0	0	0	0	504	415	0	543	38	7	
5	0	0	0	0	511	415	0	528	38	6	
6	0	0	0	0	507	421	0	515	38	6	
7	0	0	0	0	504	428	0	511	39	6	
8	0	0	0	0	511	433	0	508	38	6	
9	0	0	0	0	507	438	0	528	39	6	
10	0	0	0	0	505	444	0	541	39	7	
11	0	0	0	0	510	448	0	545	38	7	
12	0	0	0	0	509	449	0	545	38	7	
13	0	0	0	0	504	448	0	534	39	7	
14	0	0	0	0	502	451	0	521	39	6	
15	0	0	0	0	508	452	0	513	39	6	
0	0	0	0	0	505	450	0	502	39	6	
1	0	0	0	0	503	447	0	493	39	6	
2	0	0	0	0	508	441	0	488	39	7	
3	0	0	0	0	506	436	0	485	38	7	
4	0	0	0	0	507	435	0	486	39	7	
5	0	0	0	0	515	433	0	486	39	7	
6	0	0	0	0	510	431	0	487	39	6	
