# OpenSignals Text File Format. Version 1
# {"98:D3:51:FD:71:01": {"position": 0, "device": "bitalino_rev", "device name": "98:D3:51:FD:71:01", "device connection": "BTH98:D3:51:FD:71:01", "sampling rate": 1000, "resolution": [4, 1, 1, 1, 1, 10, 10, 10, 10, 6, 6], "firmware version": 1282, "comments": "", "keywords": "", "mode": 0, "sync interval": 2, "date": "2024-4-19", "time": "11:54:13.974", "channels": [1, 2, 3, 4, 5, 6], "sensor": ["RAW", "RAW", "RAW", "RAW", "RAW", "RAW"], "label": ["A1", "A2", "A3", "A4", "A5", "A6"], "column": ["nSeq", "I1", "I2", "O1", "O2", "A1", "A2", "A3", "A4", "A5", "A6"], "special": [{}, {}, {}, {}, {}, {}], "digital IO": [0, 0, 1, 1]}}
# EndOfHeader
0	0	0	0	0	507	468	0	478	38	4	
1	0	0	0	0	508	468	0	478	38	4	
2	0	0	0	0	510	469	0	482	39	4	
3	0	0	0	0	509	473	0	481	38	4	
4	0	0	0	0	505	472	0	482	38	4	
5	0	0	0	0	504	464	0	482	38	4	
6	0	0	0	0	501	454	0	489	39	4	
7	0	0	0	0	505	449	0	496	38	4	
8	0	0	0	0	511	451	0	494	39	4	
9	0	0	0	0	508	454	0	491	38	4	
10	0	0	0	0	508	453	0	486	39	4	
11	0	0	0	0	502	460	0	486	39	4	
12	0	0	0	0	514	474	0	481	39	4	
13	0	0	0	0	513	488	0	477	39	4	
14	0	0	0	0	510	496	0	475	39	4	
15	0	0	0	0	502	492	0	472	38	4	
0	0	0	0	0	504	488	0	470	38	4	
1	0	0	0	0	509	486	0	470	38	4	
2	0	0	0	0	507	482	0	468	39	4	
3	0	0	0	0	507	479	0	472	38	4	
4	0	0	0	0	501	481	0	470	39	4	
5	0	0	0	0	507	488	0	469	39	4	
6	0	0	0	0	509	495	0	470	39	4	
7	0	0	0	0	505	498	0	470	38	4	
8	0	0	0	0	503	496	0	469	39	4	
9	0	0	0	0	511	495	0	468	38	4	
10	0	0	0	0	513	497	0	467	39	4	
11	0	0	0	0	514	497	0	472	38	4	
12	0	0	0	0	504	498	0	467	39	4	
13	0	0	0	0	510	500	0	465	38	4	
14	0	0	0	0	505	505	0	465	38	4	
15	0	0	0	0	502	508	0	475	38	4	
0	0	0	0	0	509	510	0	491	38	4	
1	0	0	0	0	505	512	0	516	38	4	
2	0	0	0	0	503	510	0	522	39	4	
3	0	0	0	0	506	508	0	531	38	4	
4	0	0	0	0	499	507	0	538	38	4	
5	0	0	0	0	503	505	0	536	38	4	
6	0	0	0	0	517	504	0	546	38	4	
7	0	0	0	0	508	504	0	537	38	4	
8	0	0	0	0	516	504	0	536	38	4	
9	0	0	0	0	507	506	0	537	38	4	
10	0	0	0	0	510	508	0	529	38	4	
11	0	0	0	0	508	508	0	524	38	4	
12	0	0	0	0	513	505	0	506	38	4	
13	0	0	0	0	503	503	0	492	38	4	
14	0	0	0	0	505	506	0	481	38	4	
15	0	0	0	0	511	512	0	475	38	4	
0	0	0	0	0	499	515	0	468	38	4	
1	0	0	0	0	510	514	0	459	38	4	
2	0	0	0	0	507	514	0	454	38	4	
3	0	0	0	0	511	512	0	456	38	4	
4	0	0	0	0	505	510	0	453	38	4	
5	0	0	0	0	504	508	0	454	38	4	
6	0	0	0	0	511	503	0	454	38	4	
7	0	0	0	0	510	502	0	452	38	4	
8	0	0	0	0	503	501	0	449	38	4	
9	0	0	0	0	505	496	0	446	38	4	
10	0	0	0	0	505	492	0	448	38	4	
11	0	0	0	0	507	496	0	451	38	4	
12	0	0	0	0	506	503	0	451	38	4	
13	0	0	0	0	509	508	0	451	38	4	
14	0	0	0	0	510	507	0	451	38	4	
15	0	0	0	0	503	503	0	450	38	4	
0	0	0	0	0	504	500	0	445	38	4	
1	0	0	0	0	513	502	0	445	38	4	
2	0	0	0	0	509	505	0	447	39	4	
3	0	0	0	0	507	507	0	446	38	4	
4	0	0	0	0	502	512	0	448	38	4	
5	0	0	0	0	510	526	0	449	38	4	
6	0	0	0	0	504	541	0	449	38	4	
7	0	0	0	0	507	551	0	459	38	4	
8	0	0	0	0	510	555	0	481	38	4	
9	0	0	0	0	510	550	0	492	39	4	
10	0	0	0	0	506	541	0	508	39	4	
11	0	0	0	0	501	533	0	516	38	4	
12	0	0	0	0	510	527	0	520	39	4	
13	0	0	0	0	510	524	0	535	39	4	
14	0	0	0	0	499	526	0	532	38	4	
15	0	0	0	0	508	535	0	538	39	4	
0	0	0	0	0	503	545	0	531	39	4	
1	0	0	0	0	512	552	0	525	39	4	
2	0	0	0	0	508	552	0	529	39	4	
3	0	0	0	0	506	551	0	522	39	4	
4	0	0	0	0	510	550	0	515	39	4	
5	0	0	0	0	514	549	0	503	39	4	
6	0	0	0	0	504	549	0	489	39	4	
7	0	0	0	0	511	553	0	480	39	4	
8	0	0	0	0	509	562	0	472	39	4	
9	0	0	0	0	505	571	0	462	39	4	
10	0	0	0	0	502	578	0	453	39	4	
11	0	0	0	0	505	582	0	449	39	4	
12	0	0	0	0	510	581	0	448	39	4	
13	0	0	0	0	507	580	0	450	39	4	
14	0	0	0	0	509	578	0	448	39	4	
15	0	0	0	0	505	578	0	444	39	4	
0	0	0	0	0	515	583	0	440	39	4	
1	0	0	0	0	511	589	0	440	39	4	
2	0	0	0	0	503	598	0	439	39	4	
3	0	0	0	0	505	608	0	443	39	4	
4	0	0	0	0	498	616	0	446	39	4	
5	0	0	0	0	509	617	0	447	38	4	
6	0	0	0	0	509	613	0	450	38	4	
7	0	0	0	0	508	604	0	455	38	4	
8	0	0	0	0	510	596	0	447	38	4	
9	0	0	0	0	511	591	0	449	38	4	
10	0	0	0	0	509	585	0	448	39	4	
11	0	0	0	0	508	583	0	451	38	4	
12	0	0	0	0	509	582	0	454	38	4	
13	0	0	0	0	506	577	0	471	38	4	
14	0	0	0	0	512	572	0	457	38	4	
15	0	0	0	0	505	572	0	455	38	4	
0	0	0	0	0	505	579	0	460	38	4	
1	0	0	0	0	509	578	0	484	38	4	
2	0	0	0	0	511	579	0	499	38	4	
3	0	0	0	0	502	583	0	515	38	4	
4	0	0	0	0	501	589	0	527	38	4	
5	0	0	0	0	511	596	0	532	38	4	
6	0	0	0	0	504	602	0	540	38	4	
7	0	0	0	0	506	600	0	535	38	4	
8	0	0	0	0	512	596	0	536	38	4	
9	0	0	0	0	511	592	0	539	38	4	
10	0	0	0	0	503	583	0	531	38	4	
11	0	0	0	0	504	582	0	540	38	4	
12	0	0	0	0	503	583	0	535	38	4	
13	0	0	0	0	510	580	0	531	38	4	
14	0	0	0	0	508	578	0	526	38	4	
15	0	0	0	0	512	577	0	535	38	4	
0	0	0	0	0	508	575	0	528	38	4	
1	0	0	0	0	504	572	0	532	38	4	
2	0	0	0	0	511	572	0	535	38	4	
3	0	0	0	0	511	575	0	531	38	4	
4	0	0	0	0	506	575	0	521	38	4	
5	0	0	0	0	503	572	0	508	38	4	
6	0	0	0	0	501	569	0	492	38	4	
7	0	0	0	0	505	565	0	482	38	4	
8	0	0	0	0	507	563	0	472	38	4	
9	0	0	0	0	512	561	0	460	38	4	
10	0	0	0	0	512	558	0	455	38	4	
11	0	0	0	0	505	553	0	453	38	4	
12	0	0	0	0	512	551	0	467	38	4	
13	0	0	0	0	511	548	0	454	38	4	
14	0	0	0	0	505	543	0	453	38	4	
15	0	0	0	0	505	536	0	455	38	4	
0	0	0	0	0	502	529	0	451	38	4	
1	0	0	0	0	502	521	0	451	38	4	
2	0	0	0	0	509	512	0	451	39	4	
3	0	0	0	0	511	510	0	454	39	4	
4	0	0	0	0	505	514	0	455	38	4	
5	0	0	0	0	512	519	0	455	38	4	
6	0	0	0	0	503	524	0	456	39	4	
7	0	0	0	0	510	525	0	454	39	4	
8	0	0	0	0	509	521	0	452	39	4	
9	0	0	0	0	504	513	0	450	39	4	
10	0	0	0	0	503	504	0	450	39	4	
11	0	0	0	0	505	498	0	454	39	4	
12	0	0	0	0	504	492	0	456	38	4	
13	0	0	0	0	512	489	0	455	39	4	
14	0	0	0	0	500	485	0	458	39	4	
15	0	0	0	0	509	480	0	454	38	4	
0	0	0	0	0	513	477	0	453	38	4	
1	0	0	0	0	502	472	0	451	39	4	
2	0	0	0	0	503	472	0	453	39	4	
3	0	0	0	0	505	475	0	455	39	4	
4	0	0	0	0	511	474	0	454	39	4	
5	0	0	0	0	514	471	0	456	39	4	
6	0	0	0	0	505	468	0	458	39	4	
7	0	0	0	0	507	467	0	458	39	4	
8	0	0	0	0	514	470	0	456	39	4	
9	0	0	0	0	512	470	0	452	38	4	
10	0	0	0	0	510	469	0	455	38	4	
11	0	0	0	0	505	470	0	457	39	4	
12	0	0	0	0	505	471	0	461	39	4	
13	0	0	0	0	504	475	0	462	39	4	
14	0	0	0	0	503	477	0	464	38	4	
15	0	0	0	0	507	478	0	463	38	4	
0	0	0	0	0	505	478	0	475	38	4	
1	0	0	0	0	515	478	0	456	38	4	
2	0	0	0	0	503	480	0	459	39	4	
3	0	0	0	0	508	477	0	463	38	4	
4	0	0	0	0	509	470	0	467	38	4	
5	0	0	0	0	507	466	0	475	38	4	
6	0	0	0	0	505	467	0	475	38	4	
7	0	0	0	0	512	467	0	476	38	4	
8	0	0	0	0	513	467	0	473	38	4	
9	0	0	0	0	497	462	0	472	38	4	
10	0	0	0	0	507	462	0	478	39	4	
11	0	0	0	0	513	467	0	479	38	4	
12	0	0	0	0	507	469	0	483	38	4	
13	0	0	0	0	508	468	0	483	38	4	
14	0	0	0	0	509	469	0	481	38	4	
15	0	0	0	0	508	468	0	493	38	4	
0	0	0	0	0	509	466	0	513	38	4	
1	0	0	0	0	512	460	0	518	38	4	
2	0	0	0	0	505	452	0	537	38	4	
3	0	0	0	0	503	452	0	554	38	4	
4	0	0	0	0	506	459	0	557	38	4	
5	0	0	0	0	502	457	0	569	38	4	
6	0	0	0	0	508	453	0	563	38	4	
7	0	0	0	0	509	447	0	568	38	4	
8	0	0	0	0	510	435	0	565	39	4	
9	0	0	0	0	507	430	0	557	38	4	
10	0	0	0	0	512	429	0	565	39	4	
11	0	0	0	0	513	428	0	560	38	4	
12	0	0	0	0	504	427	0	568	38	4	
13	0	0	0	0	509	426	0	566	38	4	
14	0	0	0	0	505	428	0	564	39	4	
15	0	0	0	0	497	436	0	570	38	4	
0	0	0	0	0	512	445	0	575	38	4	
1	0	0	0	0	512	454	0	561	39	4	
2	0	0	0	0	507	463	0	558	39	4	
3	0	0	0	0	512	464	0	554	39	4	
4	0	0	0	0	504	460	0	563	39	4	
5	0	0	0	0	510	458	0	570	39	4	
6	0	0	0	0	508	458	0	562	39	4	
7	0	0	0	0	505	457	0	561	39	4	
8	0	0	0	0	508	457	0	556	38	4	
9	0	0	0	0	501	458	0	561	39	4	
10	0	0	0	0	509	464	0	555	39	4	
11	0	0	0	0	507	473	0	545	39	4	
12	0	0	0	0	502	480	0	532	39	4	
13	0	0	0	0	503	480	0	518	39	4	
14	0	0	0	0	510	473	0	524	39	4	
15	0	0	0	0	513	464	0	498	39	4	
0	0	0	0	0	509	455	0	492	39	4	
1	0	0	0	0	506	448	0	487	39	4	
2	0	0	0	0	508	445	0	483	39	4	
3	0	0	0	0	511	447	0	484	39	4	
4	0	0	0	0	504	452	0	480	39	4	
5	0	0	0	0	507	457	0	480	39	4	
6	0	0	0	0	502	457	0	477	39	4	
7	0	0	0	0	510	456	0	475	39	4	
8	0	0	0	0	510	457	0	472	39	4	
9	0	0	0	0	506	456	0	466	39	4	
10	0	0	0	0	511	458	0	464	39	4	
11	0	0	0	0	506	460	0	467	39	4	
12	0	0	0	0	504	462	0	475	39	4	
13	0	0	0	0	503	457	0	473	39	4	
14	0	0	0	0	504	454	0	478	39	4	
15	0	0	0	0	510	453	0	477	39	4	
0	0	0	0	0	510	457	0	475	39	4	
1	0	0	0	0	505	462	0	475	39	4	
2	0	0	0	0	510	466	0	470	39	4	
3	0	0	0	0	505	472	0	472	39	4	
4	0	0	0	0	509	476	0	473	39	4	
5	0	0	0	0	512	478	0	474	39	4	
6	0	0	0	0	512	476	0	475	38	4	
7	0	0	0	0	508	470	0	479	38	4	
8	0	0	0	0	510	461	0	500	38	4	
9	0	0	0	0	506	456	0	510	38	4	
10	0	0	0	0	501	450	0	523	39	4	
11	0	0	0	0	501	445	0	546	38	4	
12	0	0	0	0	506	441	0	537	38	4	
13	0	0	0	0	511	437	0	550	38	4	
14	0	0	0	0	507	436	0	548	38	4	
15	0	0	0	0	504	440	0	549	38	4	
0	0	0	0	0	511	444	0	553	38	4	
1	0	0	0	0	506	449	0	543	38	4	
2	0	0	0	0	510	457	0	552	38	4	
3	0	0	0	0	507	462	0	550	38	4	
4	0	0	0	0	512	463	0	553	38	4	
5	0	0	0	0	505	460	0	557	38	4	
6	0	0	0	0	508	459	0	551	38	4	
7	0	0	0	0	510	452	0	558	38	4	
8	0	0	0	0	515	446	0	552	38	4	
9	0	0	0	0	505	444	0	547	38	4	
10	0	0	0	0	500	444	0	531	39	4	
11	0	0	0	0	506	443	0	516	38	4	
12	0	0	0	0	504	447	0	502	38	4	
13	0	0	0	0	508	452	0	493	38	4	
14	0	0	0	0	505	459	0	500	38	4	
15	0	0	0	0	511	467	0	480	38	4	
0	0	0	0	0	509	471	0	481	38	4	
1	0	0	0	0	509	471	0	502	38	4	
2	0	0	0	0	506	468	0	513	38	4	
3	0	0	0	0	509	465	0	530	38	4	
4	0	0	0	0	505	468	0	517	39	4	
5	0	0	0	0	513	473	0	510	38	4	
6	0	0	0	0	504	479	0	501	38	4	
7	0	0	0	0	510	492	0	504	38	4	
8	0	0	0	0	505	502	0	484	38	4	
9	0	0	0	0	501	505	0	476	38	4	
10	0	0	0	0	507	502	0	474	38	4	
11	0	0	0	0	505	499	0	473	38	4	
12	0	0	0	0	509	492	0	474	38	4	
13	0	0	0	0	504	486	0	472	38	4	
14	0	0	0	0	509	479	0	473	38	4	
15	0	0	0	0	509	475	0	470	38	4	
0	0	0	0	0	508	475	0	468	39	4	
1	0	0	0	0	511	475	0	463	38	4	
2	0	0	0	0	510	473	0	465	39	4	
3	0	0	0	0	505	472	0	470	38	4	
4	0	0	0	0	505	474	0	474	38	4	
5	0	0	0	0	502	480	0	478	38	4	
6	0	0	0	0	512	481	0	478	38	4	
7	0	0	0	0	510	482	0	477	38	4	
8	0	0	0	0	509	481	0	474	39	4	
9	0	0	0	0	500	481	0	472	39	4	
10	0	0	0	0	504	482	0	471	38	4	
11	0	0	0	0	503	486	0	474	39	4	
12	0	0	0	0	507	487	0	478	39	4	
13	0	0	0	0	510	486	0	481	39	4	
14	0	0	0	0	510	484	0	484	39	4	
15	0	0	0	0	504	486	0	486	39	4	
0	0	0	0	0	506	496	0	506	39	4	
1	0	0	0	0	506	506	0	519	39	4	
2	0	0	0	0	504	511	0	529	39	4	
3	0	0	0	0	507	511	0	551	38	4	
4	0	0	0	0	509	514	0	553	39	4	
5	0	0	0	0	503	513	0	566	38	4	
6	0	0	0	0	503	506	0	568	38	4	
7	0	0	0	0	508	505	0	563	39	4	
8	0	0	0	0	504	508	0	568	39	4	
9	0	0	0	0	511	503	0	559	38	4	
10	0	0	0	0	507	496	0	564	39	4	
11	0	0	0	0	509	499	0	566	38	4	
12	0	0	0	0	506	504	0	556	39	4	
13	0	0	0	0	507	507	0	551	39	4	
14	0	0	0	0	511	506	0	563	39	4	
15	0	0	0	0	511	503	0	560	39	4	
0	0	0	0	0	505	501	0	553	39	4	
1	0	0	0	0	498	499	0	539	39	4	
2	0	0	0	0	505	494	0	526	39	4	
3	0	0	0	0	508	487	0	514	38	4	
4	0	0	0	0	516	479	0	505	38	4	
5	0	0	0	0	513	472	0	497	38	4	
6	0	0	0	0	510	470	0	493	39	4	
7	0	0	0	0	497	469	0	490	39	4	
8	0	0	0	0	503	465	0	489	38	4	
9	0	0	0	0	503	462	0	479	38	4	
10	0	0	0	0	517	461	0	479	39	4	
11	0	0	0	0	510	460	0	480	39	4	
12	0	0	0	0	504	462	0	496	38	4	
13	0	0	0	0	507	467	0	481	38	4	
14	0	0	0	0	507	472	0	483	38	4	
15	0	0	0	0	499	478	0	481	38	4	
0	0	0	0	0	506	479	0	478	38	4	
1	0	0	0	0	504	479	0	474	38	4	
2	0	0	0	0	507	481	0	475	38	4	
3	0	0	0	0	504	484	0	476	38	4	
4	0	0	0	0	507	487	0	477	38	4	
5	0	0	0	0	502	488	0	482	38	4	
6	0	0	0	0	509	488	0	482	38	4	
7	0	0	0	0	509	487	0	484	38	4	
8	0	0	0	0	510	486	0	483	38	4	
9	0	0	0	0	505	485	0	485	38	4	
10	0	0	0	0	500	481	0	484	38	4	
11	0	0	0	0	508	478	0	487	38	4	
12	0	0	0	0	510	481	0	491	38	4	
13	0	0	0	0	509	488	0	518	38	4	
14	0	0	0	0	519	493	0	532	38	4	
15	0	0	0	0	510	492	0	542	38	4	
0	0	0	0	0	512	491	0	560	38	4	
1	0	0	0	0	507	492	0	555	38	4	
2	0	0	0	0	510	491	0	564	39	4	
3	0	0	0	0	511	488	0	568	38	4	
4	0	0	0	0	501	487	0	569	39	4	
5	0	0	0	0	506	486	0	580	38	4	
6	0	0	0	0	500	483	0	574	38	4	
7	0	0	0	0	504	479	0	576	38	4	
8	0	0	0	0	508	470	0	569	38	4	
9	0	0	0	0	509	467	0	563	38	4	
10	0	0	0	0	513	467	0	572	38	4	
11	0	0	0	0	500	465	0	563	38	4	
12	0	0	0	0	511	459	0	557	38	4	
13	0	0	0	0	512	456	0	541	38	4	
14	0	0	0	0	509	456	0	529	38	4	
15	0	0	0	0	512	459	0	515	38	4	
0	0	0	0	0	505	465	0	506	38	4	
1	0	0	0	0	505	473	0	497	38	4	
2	0	0	0	0	507	485	0	491	39	4	
3	0	0	0	0	506	496	0	489	38	4	
4	0	0	0	0	505	504	0	485	38	4	
5	0	0	0	0	506	507	0	484	38	4	
6	0	0	0	0	508	505	0	483	38	4	
7	0	0	0	0	510	499	0	479	39	4	
8	0	0	0	0	509	493	0	476	39	4	
9	0	0	0	0	499	486	0	472	39	4	
10	0	0	0	0	503	481	0	474	39	4	
11	0	0	0	0	501	473	0	478	39	4	
12	0	0	0	0	504	465	0	481	39	4	
13	0	0	0	0	508	457	0	482	39	4	
14	0	0	0	0	508	455	0	486	38	4	
15	0	0	0	0	509	454	0	486	38	4	
0	0	0	0	0	511	452	0	487	39	4	
1	0	0	0	0	508	452	0	481	39	4	
2	0	0	0	0	510	455	0	483	39	4	
3	0	0	0	0	506	465	0	483	38	4	
4	0	0	0	0	509	476	0	488	38	4	
5	0	0	0	0	512	486	0	489	39	4	
6	0	0	0	0	509	489	0	488	38	4	
7	0	0	0	0	508	491	0	489	39	4	
8	0	0	0	0	507	487	0	493	38	4	
9	0	0	0	0	506	484	0	529	38	4	
10	0	0	0	0	512	492	0	532	39	4	
11	0	0	0	0	508	504	0	549	39	4	
12	0	0	0	0	505	513	0	565	39	4	
13	0	0	0	0	494	520	0	566	39	4	
14	0	0	0	0	505	529	0	579	38	4	
15	0	0	0	0	511	542	0	575	39	4	
0	0	0	0	0	510	559	0	576	39	4	
1	0	0	0	0	502	580	0	577	39	4	
2	0	0	0	0	504	595	0	570	39	4	
3	0	0	0	0	511	606	0	578	38	4	
4	0	0	0	0	505	620	0	575	38	4	
5	0	0	0	0	511	633	0	570	39	4	
6	0	0	0	0	512	646	0	569	38	4	
7	0	0	0	0	503	658	0	578	39	4	
8	0	0	0	0	515	662	0	572	38	4	
9	0	0	0	0	508	665	0	566	39	4	
10	0	0	0	0	511	667	0	551	39	4	
11	0	0	0	0	500	666	0	537	39	4	
12	0	0	0	0	512	657	0	526	38	4	
13	0	0	0	0	505	649	0	516	39	4	
14	0	0	0	0	509	641	0	508	38	4	
15	0	0	0	0	501	630	0	502	38	4	
0	0	0	0	0	509	614	0	495	39	4	
1	0	0	0	0	507	598	0	489	39	4	
2	0	0	0	0	508	583	0	488	39	4	
3	0	0	0	0	508	571	0	488	38	4	
4	0	0	0	0	513	556	0	491	38	4	
5	0	0	0	0	509	539	0	492	38	4	
6	0	0	0	0	503	520	0	495	38	4	
7	0	0	0	0	501	504	0	496	39	4	
8	0	0	0	0	511	485	0	508	38	4	
9	0	0	0	0	510	466	0	491	38	4	
10	0	0	0	0	502	450	0	491	39	4	
11	0	0	0	0	512	435	0	491	39	4	
12	0	0	0	0	511	418	0	493	38	4	
13	0	0	0	0	507	398	0	494	38	4	
14	0	0	0	0	508	380	0	492	38	4	
15	0	0	0	0	507	369	0	490	39	4	
0	0	0	0	0	499	368	0	487	38	4	
1	0	0	0	0	511	365	0	487	38	4	
2	0	0	0	0	507	367	0	484	38	4	
3	0	0	0	0	511	369	0	486	38	4	
4	0	0	0	0	514	371	0	491	38	4	
5	0	0	0	0	509	371	0	512	38	4	
6	0	0	0	0	508	376	0	529	38	4	
7	0	0	0	0	505	389	0	540	38	4	
8	0	0	0	0	514	399	0	555	38	4	
9	0	0	0	0	508	405	0	568	38	4	
10	0	0	0	0	502	408	0	570	39	4	
11	0	0	0	0	505	411	0	582	38	4	
12	0	0	0	0	508	414	0	578	38	4	
13	0	0	0	0	507	420	0	580	38	4	
14	0	0	0	0	509	424	0	586	38	4	
15	0	0	0	0	504	429	0	580	38	4	
0	0	0	0	0	516	435	0	583	38	4	
1	0	0	0	0	507	434	0	578	38	4	
2	0	0	0	0	507	432	0	571	38	4	
3	0	0	0	0	502	440	0	558	38	4	
4	0	0	0	0	512	455	0	544	38	4	
5	0	0	0	0	504	473	0	529	38	4	
6	0	0	0	0	511	489	0	519	39	4	
7	0	0	0	0	510	503	0	512	38	4	
8	0	0	0	0	502	513	0	507	38	4	
9	0	0	0	0	505	515	0	502	38	4	
10	0	0	0	0	505	515	0	496	38	4	
11	0	0	0	0	506	508	0	496	38	4	
12	0	0	0	0	505	496	0	496	38	4	
13	0	0	0	0	504	486	0	500	39	4	
14	0	0	0	0	506	479	0	499	38	4	
15	0	0	0	0	507	476	0	499	38	4	
0	0	0	0	0	511	480	0	496	38	4	
1	0	0	0	0	508	488	0	496	38	4	
2	0	0	0	0	511	496	0	497	39	4	
3	0	0	0	0	505	502	0	499	38	4	
4	0	0	0	0	506	509	0	500	39	4	
5	0	0	0	0	507	511	0	500	38	4	
6	0	0	0	0	509	505	0	502	39	4	
7	0	0	0	0	505	499	0	497	39	4	
8	0	0	0	0	512	499	0	495	38	4	
9	0	0	0	0	506	503	0	492	38	4	
10	0	0	0	0	504	507	0	492	39	4	
11	0	0	0	0	509	509	0	495	38	4	
12	0	0	0	0	508	509	0	496	39	4	
13	0	0	0	0	504	507	0	499	39	4	
14	0	0	0	0	514	503	0	500	39	4	
15	0	0	0	0	507	496	0	513	39	4	
0	0	0	0	0	507	495	0	492	39	4	
1	0	0	0	0	505	497	0	490	38	4	
2	0	0	0	0	507	499	0	492	39	4	
3	0	0	0	0	504	504	0	494	38	4	
4	0	0	0	0	510	512	0	499	38	4	
5	0	0	0	0	500	519	0	498	38	4	
6	0	0	0	0	508	521	0	499	39	4	
7	0	0	0	0	507	519	0	499	38	4	
8	0	0	0	0	511	514	0	494	38	4	
9	0	0	0	0	511	512	0	491	38	4	
10	0	0	0	0	504	513	0	491	39	4	
11	0	0	0	0	514	514	0	506	38	4	
12	0	0	0	0	503	515	0	533	39	4	
13	0	0	0	0	504	514	0	544	39	4	
14	0	0	0	0	510	513	0	560	39	4	
15	0	0	0	0	506	511	0	569	38	4	
0	0	0	0	0	512	512	0	569	38	4	
1	0	0	0	0	500	519	0	579	38	4	
2	0	0	0	0	503	525	0	572	39	4	
3	0	0	0	0	510	527	0	579	38	4	
4	0	0	0	0	518	523	0	581	38	4	
5	0	0	0	0	505	521	0	578	38	4	
6	0	0	0	0	513	524	0	595	39	4	
7	0	0	0	0	508	526	0	577	38	4	
8	0	0	0	0	507	530	0	578	38	4	
9	0	0	0	0	509	531	0	573	38	4	
10	0	0	0	0	504	525	0	569	38	4	
11	0	0	0	0	507	520	0	587	39	4	
12	0	0	0	0	506	518	0	567	39	4	
13	0	0	0	0	518	515	0	560	38	4	
14	0	0	0	0	504	519	0	563	38	4	
15	0	0	0	0	504	525	0	568	39	4	
0	0	0	0	0	508	532	0	562	38	4	
1	0	0	0	0	508	540	0	552	38	4	
2	0	0	0	0	509	546	0	538	39	4	
3	0	0	0	0	516	548	0	523	38	4	
4	0	0	0	0	509	551	0	515	39	4	
5	0	0	0	0	505	551	0	504	39	4	
6	0	0	0	0	506	551	0	501	38	4	
7	0	0	0	0	508	550	0	497	39	4	
8	0	0	0	0	509	550	0	491	39	4	
9	0	0	0	0	505	547	0	488	39	4	
10	0	0	0	0	505	540	0	485	39	4	
11	0	0	0	0	505	535	0	486	39	4	
12	0	0	0	0	501	530	0	487	39	4	
13	0	0	0	0	504	523	0	489	39	4	
14	0	0	0	0	510	523	0	492	39	4	
15	0	0	0	0	503	522	0	490	39	4	
0	0	0	0	0	513	525	0	486	39	4	
1	0	0	0	0	502	534	0	481	39	4	
2	0	0	0	0	505	538	0	481	39	4	
3	0	0	0	0	507	539	0	483	39	4	
4	0	0	0	0	512	541	0	480	39	4	
5	0	0	0	0	503	543	0	482	39	4	
6	0	0	0	0	501	543	0	483	39	4	
7	0	0	0	0	508	546	0	481	38	4	
8	0	0	0	0	504	549	0	477	39	4	
9	0	0	0	0	508	554	0	475	39	4	
10	0	0	0	0	506	563	0	475	39	4	
11	0	0	0	0	510	575	0	478	39	4	
12	0	0	0	0	512	589	0	483	39	4	
13	0	0	0	0	511	598	0	484	39	4	
14	0	0	0	0	505	592	0	487	39	4	
15	0	0	0	0	509	584	0	489	39	4	
0	0	0	0	0	509	576	0	487	39	4	
1	0	0	0	0	503	570	0	489	39	4	
2	0	0	0	0	509	568	0	487	39	4	
3	0	0	0	0	507	564	0	488	39	4	
4	0	0	0	0	510	564	0	494	39	4	
5	0	0	0	0	508	566	0	518	39	4	
6	0	0	0	0	511	571	0	534	39	4	
7	0	0	0	0	511	574	0	539	39	4	
8	0	0	0	0	504	577	0	555	39	4	
9	0	0	0	0	510	578	0	553	38	4	
10	0	0	0	0	509	578	0	564	38	4	
11	0	0	0	0	505	574	0	569	38	4	
12	0	0	0	0	506	571	0	567	38	4	
13	0	0	0	0	502	570	0	577	38	4	
14	0	0	0	0	504	574	0	574	38	4	
15	0	0	0	0	499	582	0	579	38	4	
0	0	0	0	0	508	590	0	573	38	4	
1	0	0	0	0	511	594	0	563	38	4	
2	0	0	0	0	513	594	0	571	38	4	
3	0	0	0	0	510	595	0	565	38	4	
4	0	0	0	0	509	594	0	559	38	4	
5	0	0	0	0	501	595	0	545	38	4	
6	0	0	0	0	500	595	0	529	38	4	
7	0	0	0	0	509	595	0	519	38	4	
8	0	0	0	0	506	596	0	509	38	4	
9	0	0	0	0	512	596	0	499	38	4	
10	0	0	0	0	513	598	0	492	38	4	
11	0	0	0	0	497	601	0	489	38	4	
12	0	0	0	0	511	600	0	488	38	4	
13	0	0	0	0	510	598	0	487	38	4	
14	0	0	0	0	505	595	0	491	38	4	
15	0	0	0	0	508	589	0	482	38	4	
0	0	0	0	0	511	580	0	479	38	4	
1	0	0	0	0	511	572	0	476	38	4	
2	0	0	0	0	513	567	0	479	38	4	
3	0	0	0	0	509	561	0	483	38	4	
4	0	0	0	0	508	556	0	484	38	4	
5	0	0	0	0	503	553	0	488	38	4	
6	0	0	0	0	505	553	0	492	38	4	
7	0	0	0	0	502	559	0	492	38	4	
8	0	0	0	0	507	563	0	491	38	4	
9	0	0	0	0	512	564	0	487	38	4	
10	0	0	0	0	509	563	0	487	38	4	
11	0	0	0	0	509	560	0	490	38	4	
12	0	0	0	0	501	559	0	491	38	4	
13	0	0	0	0	509	559	0	493	38	4	
14	0	0	0	0	502	556	0	490	38	4	
15	0	0	0	0	502	551	0	490	38	4	
0	0	0	0	0	504	550	0	492	38	4	
1	0	0	0	0	510	544	0	517	38	4	
2	0	0	0	0	513	534	0	532	39	4	
3	0	0	0	0	510	526	0	544	38	4	
4	0	0	0	0	509	522	0	558	38	4	
5	0	0	0	0	502	518	0	558	38	4	
6	0	0	0	0	511	519	0	572	38	4	
7	0	0	0	0	513	524	0	585	38	4	
8	0	0	0	0	512	532	0	570	39	4	
9	0	0	0	0	508	539	0	569	39	4	
10	0	0	0	0	504	540	0	561	39	4	
11	0	0	0	0	501	539	0	571	39	4	
12	0	0	0	0	508	537	0	583	39	4	
13	0	0	0	0	508	535	0	563	39	4	
14	0	0	0	0	505	532	0	560	39	4	
15	0	0	0	0	504	529	0	572	39	4	
0	0	0	0	0	504	526	0	566	39	4	
1	0	0	0	0	513	520	0	561	39	4	
2	0	0	0	0	511	515	0	547	39	4	
3	0	0	0	0	512	512	0	534	39	4	
4	0	0	0	0	508	507	0	525	39	4	
5	0	0	0	0	507	503	0	517	39	4	
6	0	0	0	0	508	496	0	512	39	4	
7	0	0	0	0	509	488	0	506	39	4	
8	0	0	0	0	507	484	0	503	39	4	
9	0	0	0	0	506	482	0	499	39	4	
10	0	0	0	0	502	486	0	498	39	4	
11	0	0	0	0	508	487	0	498	39	4	
12	0	0	0	0	508	487	0	500	39	4	
13	0	0	0	0	508	486	0	502	39	4	
14	0	0	0	0	512	480	0	504	39	4	
15	0	0	0	0	508	474	0	505	39	4	
0	0	0	0	0	509	466	0	500	39	4	
1	0	0	0	0	516	463	0	500	39	4	
2	0	0	0	0	505	464	0	502	39	4	
3	0	0	0	0	504	470	0	505	39	4	
4	0	0	0	0	510	470	0	508	39	4	
5	0	0	0	0	509	464	0	508	39	4	
6	0	0	0	0	507	461	0	508	38	4	
7	0	0	0	0	505	459	0	506	39	4	
8	0	0	0	0	505	456	0	502	39	4	
9	0	0	0	0	504	456	0	498	39	4	
10	0	0	0	0	507	458	0	497	39	4	
11	0	0	0	0	507	456	0	499	39	4	
12	0	0	0	0	508	454	0	502	38	4	
13	0	0	0	0	503	456	0	513	38	4	
14	0	0	0	0	512	460	0	537	38	4	
15	0	0	0	0	511	461	0	548	38	4	
0	0	0	0	0	509	460	0	542	38	4	
1	0	0	0	0	505	458	0	543	38	4	
2	0	0	0	0	510	455	0	561	38	4	
3	0	0	0	0	509	457	0	566	38	4	
4	0	0	0	0	507	460	0	582	38	4	
5	0	0	0	0	509	462	0	588	38	4	
6	0	0	0	0	504	463	0	590	38	4	
7	0	0	0	0	503	464	0	594	38	4	
8	0	0	0	0	512	462	0	582	38	4	
9	0	0	0	0	511	455	0	585	38	4	
10	0	0	0	0	508	449	0	586	38	4	
11	0	0	0	0	510	443	0	580	38	4	
12	0	0	0	0	508	438	0	590	38	4	
13	0	0	0	0	504	443	0	586	38	4	
14	0	0	0	0	503	447	0	591	38	4	
15	0	0	0	0	509	452	0	587	38	4	
0	0	0	0	0	510	458	0	575	38	4	
1	0	0	0	0	507	465	0	564	38	4	
2	0	0	0	0	509	469	0	549	39	4	
3	0	0	0	0	509	476	0	537	38	4	
4	0	0	0	0	498	480	0	528	38	4	
5	0	0	0	0	501	483	0	517	38	4	
6	0	0	0	0	507	483	0	513	38	4	
7	0	0	0	0	508	476	0	510	38	4	
8	0	0	0	0	509	470	0	505	38	4	
9	0	0	0	0	516	463	0	504	38	4	
10	0	0	0	0	511	458	0	502	39	4	
11	0	0	0	0	509	455	0	504	39	4	
12	0	0	0	0	516	451	0	505	38	4	
13	0	0	0	0	508	449	0	505	38	4	
14	0	0	0	0	511	450	0	512	38	4	
15	0	0	0	0	515	460	0	504	38	4	
0	0	0	0	0	504	467	0	502	39	4	
1	0	0	0	0	504	473	0	498	38	4	
2	0	0	0	0	502	477	0	500	39	4	
3	0	0	0	0	510	477	0	515	38	4	
4	0	0	0	0	509	478	0	504	39	4	
5	0	0	0	0	505	477	0	508	38	4	
6	0	0	0	0	505	476	0	512	39	4	
7	0	0	0	0	508	470	0	511	38	4	
8	0	0	0	0	508	463	0	508	39	4	
9	0	0	0	0	508	463	0	507	39	4	
10	0	0	0	0	508	464	0	508	39	4	
11	0	0	0	0	511	468	0	509	39	4	
12	0	0	0	0	516	474	0	511	39	4	
13	0	0	0	0	503	480	0	531	39	4	
14	0	0	0	0	504	478	0	552	39	4	
15	0	0	0	0	500	472	0	560	39	4	
0	0	0	0	0	504	467	0	577	39	4	
1	0	0	0	0	514	466	0	575	39	4	
2	0	0	0	0	504	466	0	580	39	4	
3	0	0	0	0	512	469	0	584	39	4	
4	0	0	0	0	510	467	0	580	38	4	
5	0	0	0	0	511	466	0	591	38	4	
6	0	0	0	0	508	469	0	586	38	4	
7	0	0	0	0	510	473	0	587	38	4	
8	0	0	0	0	503	470	0	583	39	4	
9	0	0	0	0	505	465	0	570	39	4	
10	0	0	0	0	513	460	0	559	39	4	
11	0	0	0	0	512	455	0	543	38	4	
12	0	0	0	0	501	453	0	528	38	4	
13	0	0	0	0	512	457	0	515	38	4	
14	0	0	0	0	505	463	0	506	38	4	
15	0	0	0	0	510	467	0	500	38	4	
0	0	0	0	0	509	466	0	495	38	4	
1	0	0	0	0	502	468	0	490	38	4	
2	0	0	0	0	506	474	0	491	38	4	
3	0	0	0	0	507	476	0	493	38	4	
4	0	0	0	0	508	478	0	495	38	4	
5	0	0	0	0	513	475	0	495	38	4	
6	0	0	0	0	509	470	0	493	38	4	
7	0	0	0	0	505	470	0	493	38	4	
8	0	0	0	0	502	472	0	488	38	4	
9	0	0	0	0	509	475	0	488	38	4	
10	0	0	0	0	503	477	0	483	38	4	
11	0	0	0	0	499	479	0	483	38	4	
12	0	0	0	0	511	478	0	487	38	4	
13	0	0	0	0	510	475	0	490	38	4	
14	0	0	0	0	513	477	0	494	38	4	
15	0	0	0	0	511	481	0	490	38	4	
0	0	0	0	0	507	485	0	487	38	4	
1	0	0	0	0	509	483	0	484	38	4	
2	0	0	0	0	502	478	0	485	39	4	
3	0	0	0	0	511	475	0	485	38	4	
4	0	0	0	0	509	479	0	488	38	4	
5	0	0	0	0	507	484	0	489	38	4	
6	0	0	0	0	507	487	0	490	38	4	
7	0	0	0	0	511	486	0	493	38	4	
8	0	0	0	0	504	486	0	487	38	4	
9	0	0	0	0	504	488	0	482	38	4	
10	0	0	0	0	508	487	0	481	38	4	
11	0	0	0	0	505	484	0	481	38	4	
12	0	0	0	0	505	482	0	486	38	4	
13	0	0	0	0	507	485	0	485	38	4	
14	0	0	0	0	502	486	0	487	38	4	
15	0	0	0	0	507	487	0	503	38	4	
0	0	0	0	0	511	484	0	526	38	4	
1	0	0	0	0	509	486	0	527	38	4	
2	0	0	0	0	510	493	0	547	39	4	
3	0	0	0	0	510	504	0	551	38	4	
4	0	0	0	0	508	509	0	557	39	4	
5	0	0	0	0	509	510	0	566	39	4	
6	0	0	0	0	508	504	0	559	38	4	
7	0	0	0	0	505	498	0	567	38	4	
8	0	0	0	0	497	498	0	559	38	4	
9	0	0	0	0	512	504	0	558	38	4	
10	0	0	0	0	508	506	0	562	39	4	
11	0	0	0	0	511	503	0	553	38	4	
12	0	0	0	0	511	501	0	562	38	4	
13	0	0	0	0	510	500	0	560	38	4	
14	0	0	0	0	507	500	0	560	39	4	
15	0	0	0	0	505	500	0	560	39	4	
0	0	0	0	0	510	495	0	548	38	4	
1	0	0	0	0	506	492	0	536	38	4	
2	0	0	0	0	507	491	0	523	39	4	
3	0	0	0	0	504	492	0	510	38	4	
4	0	0	0	0	502	489	0	499	38	4	
5	0	0	0	0	507	482	0	493	39	4	
6	0	0	0	0	508	476	0	487	38	4	
7	0	0	0	0	513	471	0	483	38	4	
8	0	0	0	0	510	473	0	478	38	4	
9	0	0	0	0	510	484	0	473	38	4	
10	0	0	0	0	513	497	0	470	39	4	
11	0	0	0	0	506	504	0	472	38	4	
12	0	0	0	0	510	506	0	470	39	4	
13	0	0	0	0	498	509	0	470	39	4	
14	0	0	0	0	502	506	0	486	39	4	
15	0	0	0	0	503	503	0	472	39	4	
0	0	0	0	0	510	504	0	471	39	4	
1	0	0	0	0	509	504	0	467	39	4	
2	0	0	0	0	514	497	0	466	39	4	
3	0	0	0	0	510	495	0	471	39	4	
4	0	0	0	0	508	497	0	471	39	4	
5	0	0	0	0	502	498	0	474	39	4	
6	0	0	0	0	511	494	0	474	39	4	
7	0	0	0	0	506	497	0	472	39	4	
8	0	0	0	0	503	500	0	469	39	4	
9	0	0	0	0	507	500	0	466	39	4	
10	0	0	0	0	513	503	0	469	39	4	
11	0	0	0	0	504	503	0	470	39	4	
12	0	0	0	0	508	496	0	475	39	4	
13	0	0	0	0	507	489	0	476	39	4	
14	0	0	0	0	502	483	0	479	39	4	
15	0	0	0	0	505	484	0	480	39	4	
0	0	0	0	0	508	487	0	476	39	4	
1	0	0	0	0	504	486	0	476	39	4	
2	0	0	0	0	497	485	0	475	39	4	
3	0	0	0	0	512	488	0	476	39	4	
4	0	0	0	0	511	490	0	480	39	4	
5	0	0	0	0	512	493	0	488	39	4	
6	0	0	0	0	508	495	0	483	38	4	
7	0	0	0	0	506	495	0	484	38	4	
8	0	0	0	0	512	492	0	481	38	4	
9	0	0	0	0	515	492	0	479	39	4	
10	0	0	0	0	508	490	0	479	39	4	
11	0	0	0	0	502	487	0	481	38	4	
12	0	0	0	0	513	485	0	486	39	4	
13	0	0	0	0	503	486	0	488	38	4	
14	0	0	0	0	504	482	0	491	38	4	
15	0	0	0	0	504	484	0	489	38	4	
0	0	0	0	0	509	492	0	486	38	4	
1	0	0	0	0	503	491	0	494	39	4	
2	0	0	0	0	507	483	0	520	39	4	
3	0	0	0	0	512	481	0	529	38	4	
4	0	0	0	0	503	483	0	550	38	4	
5	0	0	0	0	510	487	0	561	38	4	
6	0	0	0	0	511	494	0	567	38	4	
7	0	0	0	0	511	500	0	578	38	4	
8	0	0	0	0	511	501	0	568	38	4	
9	0	0	0	0	500	496	0	575	38	4	
10	0	0	0	0	508	491	0	578	39	4	
11	0	0	0	0	511	487	0	578	38	4	
12	0	0	0	0	505	483	0	584	39	4	
13	0	0	0	0	513	480	0	575	38	4	
14	0	0	0	0	508	477	0	581	38	4	
15	0	0	0	0	507	477	0	577	38	4	
0	0	0	0	0	508	483	0	570	38	4	
1	0	0	0	0	505	483	0	579	38	4	
2	0	0	0	0	499	484	0	573	39	4	
3	0	0	0	0	496	482	0	591	38	4	
4	0	0	0	0	506	475	0	578	38	4	
5	0	0	0	0	510	465	0	572	38	4	
6	0	0	0	0	508	457	0	566	38	4	
7	0	0	0	0	514	452	0	575	38	4	
8	0	0	0	0	510	448	0	570	38	4	
9	0	0	0	0	506	459	0	561	38	4	
10	0	0	0	0	504	478	0	549	39	4	
11	0	0	0	0	503	487	0	535	38	4	
12	0	0	0	0	513	494	0	523	38	4	
13	0	0	0	0	509	502	0	515	38	4	
14	0	0	0	0	515	510	0	505	38	4	
15	0	0	0	0	507	515	0	501	39	4	
0	0	0	0	0	503	516	0	499	38	4	
1	0	0	0	0	507	516	0	499	38	4	
2	0	0	0	0	508	518	0	515	38	4	
3	0	0	0	0	505	515	0	535	38	4	
4	0	0	0	0	503	511	0	545	38	4	
5	0	0	0	0	509	505	0	568	38	4	
6	0	0	0	0	511	504	0	568	38	4	
7	0	0	0	0	512	507	0	566	38	4	
8	0	0	0	0	505	506	0	561	38	4	
9	0	0	0	0	503	503	0	551	38	4	
10	0	0	0	0	514	500	0	539	38	4	
11	0	0	0	0	509	496	0	527	38	4	
12	0	0	0	0	505	487	0	519	38	4	
13	0	0	0	0	510	487	0	512	38	4	
14	0	0	0	0	509	485	0	509	38	4	
15	0	0	0	0	507	478	0	504	38	4	
0	0	0	0	0	508	471	0	499	38	4	
1	0	0	0	0	507	468	0	495	38	4	
2	0	0	0	0	512	474	0	494	38	4	
3	0	0	0	0	500	496	0	493	39	4	
4	0	0	0	0	508	522	0	493	38	4	
5	0	0	0	0	512	549	0	495	38	4	
6	0	0	0	0	508	570	0	496	38	4	
7	0	0	0	0	507	583	0	496	38	4	
8	0	0	0	0	506	589	0	489	38	4	
9	0	0	0	0	509	591	0	487	38	4	
10	0	0	0	0	507	596	0	488	38	4	
11	0	0	0	0	512	607	0	491	38	4	
12	0	0	0	0	502	614	0	493	38	4	
13	0	0	0	0	508	620	0	495	38	4	
14	0	0	0	0	504	628	0	498	38	4	
15	0	0	0	0	504	636	0	497	38	4	
0	0	0	0	0	508	641	0	496	38	4	
1	0	0	0	0	514	634	0	497	38	4	
2	0	0	0	0	508	626	0	497	38	4	
3	0	0	0	0	500	618	0	500	38	4	
4	0	0	0	0	501	611	0	506	38	4	
5	0	0	0	0	503	607	0	532	38	4	
6	0	0	0	0	504	601	0	547	39	4	
7	0	0	0	0	507	591	0	557	38	4	
8	0	0	0	0	508	580	0	574	38	4	
9	0	0	0	0	503	571	0	568	38	4	
10	0	0	0	0	509	561	0	578	39	4	
11	0	0	0	0	512	547	0	580	38	4	
12	0	0	0	0	507	535	0	579	38	4	
13	0	0	0	0	512	518	0	586	38	4	
14	0	0	0	0	508	502	0	578	39	4	
15	0	0	0	0	511	487	0	583	38	4	
0	0	0	0	0	500	475	0	578	38	4	
1	0	0	0	0	507	459	0	570	39	4	
2	0	0	0	0	508	443	0	558	39	4	
3	0	0	0	0	513	428	0	547	38	4	
4	0	0	0	0	510	413	0	531	38	4	
5	0	0	0	0	506	400	0	520	39	4	
6	0	0	0	0	505	391	0	512	39	4	
7	0	0	0	0	512	385	0	507	38	4	
8	0	0	0	0	511	380	0	504	38	4	
9	0	0	0	0	512	375	0	498	38	4	
10	0	0	0	0	508	374	0	496	39	4	
11	0	0	0	0	506	378	0	494	39	4	
12	0	0	0	0	507	384	0	496	39	4	
13	0	0	0	0	508	390	0	496	39	4	
14	0	0	0	0	512	401	0	495	39	4	
15	0	0	0	0	501	409	0	495	39	4	
0	0	0	0	0	506	415	0	490	39	4	
1	0	0	0	0	507	418	0	487	39	4	
2	0	0	0	0	506	427	0	487	39	4	
3	0	0	0	0	504	439	0	488	38	4	
4	0	0	0	0	509	445	0	489	38	4	
5	0	0	0	0	501	449	0	490	39	4	
6	0	0	0	0	508	454	0	494	39	4	
7	0	0	0	0	503	462	0	492	38	4	
8	0	0	0	0	513	467	0	489	38	4	
9	0	0	0	0	502	477	0	487	38	4	
10	0	0	0	0	513	484	0	488	39	4	
11	0	0	0	0	503	490	0	490	39	4	
12	0	0	0	0	507	495	0	492	38	4	
13	0	0	0	0	508	492	0	493	39	4	
14	0	0	0	0	510	491	0	513	39	4	
15	0	0	0	0	503	488	0	529	39	4	
0	0	0	0	0	512	488	0	534	38	4	
1	0	0	0	0	506	492	0	554	39	4	
2	0	0	0	0	511	493	0	559	39	4	
3	0	0	0	0	507	495	0	567	38	4	
4	0	0	0	0	511	497	0	577	39	4	
5	0	0	0	0	508	502	0	580	39	4	
6	0	0	0	0	509	508	0	583	39	4	
7	0	0	0	0	509	513	0	571	39	4	
8	0	0	0	0	500	517	0	568	39	4	
9	0	0	0	0	507	516	0	568	39	4	
10	0	0	0	0	506	515	0	559	39	4	
11	0	0	0	0	506	509	0	551	38	4	
12	0	0	0	0	499	499	0	538	39	4	
13	0	0	0	0	507	486	0	519	39	4	
14	0	0	0	0	513	488	0	506	38	4	
15	0	0	0	0	504	498	0	499	39	4	
0	0	0	0	0	506	510	0	496	39	4	
1	0	0	0	0	515	514	0	513	39	4	
2	0	0	0	0	506	515	0	529	39	4	
3	0	0	0	0	503	517	0	536	39	4	
4	0	0	0	0	516	524	0	535	39	4	
5	0	0	0	0	512	529	0	531	39	4	
6	0	0	0	0	508	529	0	518	38	4	
7	0	0	0	0	507	528	0	506	38	4	
8	0	0	0	0	507	527	0	498	39	4	
9	0	0	0	0	507	528	0	489	39	4	
10	0	0	0	0	505	527	0	484	39	4	
11	0	0	0	0	510	520	0	482	38	4	
12	0	0	0	0	506	513	0	480	38	4	
13	0	0	0	0	503	513	0	480	38	4	
14	0	0	0	0	504	512	0	483	38	4	
15	0	0	0	0	503	507	0	479	38	4	
0	0	0	0	0	507	500	0	476	38	4	
1	0	0	0	0	505	494	0	475	38	4	
2	0	0	0	0	506	492	0	475	39	4	
3	0	0	0	0	511	498	0	476	38	4	
4	0	0	0	0	509	504	0	478	38	4	
5	0	0	0	0	506	504	0	481	38	4	
6	0	0	0	0	509	500	0	479	38	4	
7	0	0	0	0	500	500	0	478	38	4	
8	0	0	0	0	509	510	0	474	38	4	
9	0	0	0	0	511	520	0	472	38	4	
10	0	0	0	0	510	527	0	472	38	4	
11	0	0	0	0	512	534	0	474	38	4	
12	0	0	0	0	508	541	0	484	38	4	
13	0	0	0	0	510	543	0	482	38	4	
14	0	0	0	0	509	544	0	481	38	4	
15	0	0	0	0	511	542	0	482	38	4	
0	0	0	0	0	502	543	0	492	38	4	
1	0	0	0	0	508	547	0	508	38	4	
2	0	0	0	0	503	549	0	526	38	4	
3	0	0	0	0	503	550	0	540	38	4	
4	0	0	0	0	508	554	0	556	38	4	
5	0	0	0	0	505	551	0	546	38	4	
6	0	0	0	0	511	545	0	543	38	4	
7	0	0	0	0	508	542	0	556	39	4	
8	0	0	0	0	512	542	0	553	38	4	
9	0	0	0	0	512	539	0	563	39	4	
10	0	0	0	0	507	543	0	562	39	4	
11	0	0	0	0	505	546	0	560	39	4	
12	0	0	0	0	505	544	0	569	39	4	
13	0	0	0	0	510	535	0	561	39	4	
14	0	0	0	0	510	539	0	567	39	4	
15	0	0	0	0	507	546	0	564	39	4	
0	0	0	0	0	499	551	0	559	39	4	
1	0	0	0	0	506	551	0	566	39	4	
2	0	0	0	0	509	548	0	559	39	4	
3	0	0	0	0	514	547	0	553	39	4	
4	0	0	0	0	507	547	0	542	39	4	
5	0	0	0	0	503	550	0	527	39	4	
6	0	0	0	0	512	551	0	516	39	4	
7	0	0	0	0	506	545	0	506	39	4	
8	0	0	0	0	511	536	0	499	39	4	
9	0	0	0	0	507	535	0	493	39	4	
10	0	0	0	0	503	535	0	489	39	4	
11	0	0	0	0	510	535	0	497	39	4	
12	0	0	0	0	504	536	0	487	39	4	
13	0	0	0	0	508	534	0	485	39	4	
14	0	0	0	0	498	531	0	485	39	4	
15	0	0	0	0	510	529	0	483	39	4	
0	0	0	0	0	516	533	0	481	39	4	
1	0	0	0	0	508	533	0	479	39	4	
2	0	0	0	0	506	544	0	479	39	4	
3	0	0	0	0	507	554	0	484	39	4	
4	0	0	0	0	508	562	0	485	39	4	
5	0	0	0	0	505	566	0	488	39	4	
6	0	0	0	0	508	575	0	492	39	4	
7	0	0	0	0	506	584	0	491	39	4	
8	0	0	0	0	510	591	0	488	39	4	
9	0	0	0	0	502	595	0	484	39	4	
10	0	0	0	0	508	597	0	486	39	4	
11	0	0	0	0	510	589	0	485	39	4	
12	0	0	0	0	514	583	0	488	39	4	
13	0	0	0	0	504	585	0	490	38	4	
14	0	0	0	0	509	593	0	492	39	4	
15	0	0	0	0	507	604	0	499	38	4	
0	0	0	0	0	506	611	0	521	38	4	
1	0	0	0	0	511	619	0	534	39	4	
2	0	0	0	0	513	620	0	547	39	4	
3	0	0	0	0	509	609	0	564	38	4	
4	0	0	0	0	510	599	0	567	38	4	
5	0	0	0	0	498	590	0	582	38	4	
6	0	0	0	0	510	588	0	579	38	4	
7	0	0	0	0	504	582	0	582	38	4	
8	0	0	0	0	512	579	0	585	38	4	
9	0	0	0	0	508	578	0	574	38	4	
10	0	0	0	0	507	575	0	580	38	4	
11	0	0	0	0	510	568	0	574	38	4	
12	0	0	0	0	505	567	0	566	38	4	
13	0	0	0	0	509	568	0	553	38	4	
14	0	0	0	0	502	571	0	538	38	4	
15	0	0	0	0	511	579	0	524	38	4	
0	0	0	0	0	507	587	0	515	38	4	
1	0	0	0	0	504	592	0	504	38	4	
2	0	0	0	0	507	594	0	498	38	4	
3	0	0	0	0	513	594	0	496	38	4	
4	0	0	0	0	505	591	0	493	38	4	
5	0	0	0	0	508	587	0	492	38	4	
6	0	0	0	0	509	588	0	490	38	4	
7	0	0	0	0	505	586	0	488	38	4	
8	0	0	0	0	507	577	0	486	38	4	
9	0	0	0	0	509	574	0	480	38	4	
10	0	0	0	0	501	574	0	480	38	4	
11	0	0	0	0	506	574	0	481	38	4	
12	0	0	0	0	502	580	0	485	38	4	
13	0	0	0	0	506	579	0	489	38	4	
14	0	0	0	0	513	572	0	492	38	4	
15	0	0	0	0	505	568	0	493	38	4	
0	0	0	0	0	502	564	0	488	38	4	
1	0	0	0	0	512	560	0	485	38	4	
2	0	0	0	0	509	560	0	486	38	4	
3	0	0	0	0	510	555	0	488	38	4	
4	0	0	0	0	509	550	0	489	38	4	
5	0	0	0	0	510	546	0	491	38	4	
6	0	0	0	0	504	543	0	508	39	4	
7	0	0	0	0	506	538	0	494	38	4	
8	0	0	0	0	510	535	0	489	38	4	
9	0	0	0	0	513	540	0	487	38	4	
10	0	0	0	0	505	547	0	487	38	4	
11	0	0	0	0	509	547	0	502	38	4	
12	0	0	0	0	511	541	0	531	38	4	
13	0	0	0	0	505	531	0	544	39	4	
14	0	0	0	0	505	525	0	564	39	4	
15	0	0	0	0	507	515	0	566	39	4	
0	0	0	0	0	512	510	0	565	39	4	
1	0	0	0	0	508	509	0	576	39	4	
2	0	0	0	0	505	510	0	572	39	4	
3	0	0	0	0	505	512	0	580	39	4	
4	0	0	0	0	506	510	0	581	39	4	
5	0	0	0	0	504	512	0	580	39	4	
6	0	0	0	0	508	517	0	585	39	4	
7	0	0	0	0	508	518	0	578	39	4	
8	0	0	0	0	501	516	0	581	39	4	
9	0	0	0	0	510	509	0	579	39	4	
10	0	0	0	0	510	503	0	572	39	4	
11	0	0	0	0	507	495	0	572	39	4	
12	0	0	0	0	513	490	0	549	39	4	
13	0	0	0	0	505	488	0	534	39	4	
14	0	0	0	0	509	484	0	522	39	4	
15	0	0	0	0	506	479	0	513	39	4	
0	0	0	0	0	504	472	0	508	38	4	
1	0	0	0	0	502	470	0	501	38	4	
2	0	0	0	0	506	468	0	501	39	4	
3	0	0	0	0	510	467	0	497	38	4	
4	0	0	0	0	502	467	0	497	38	4	
5	0	0	0	0	508	473	0	498	38	4	
6	0	0	0	0	508	474	0	497	38	4	
7	0	0	0	0	513	480	0	496	38	4	
8	0	0	0	0	508	478	0	489	38	4	
9	0	0	0	0	511	476	0	487	38	4	
10	0	0	0	0	511	480	0	483	39	4	
11	0	0	0	0	510	482	0	485	38	4	
12	0	0	0	0	506	480	0	487	38	4	
13	0	0	0	0	511	470	0	488	38	4	
14	0	0	0	0	503	460	0	490	38	4	
15	0	0	0	0	503	448	0	489	38	4	
0	0	0	0	0	512	448	0	489	38	4	
1	0	0	0	0	512	453	0	482	38	4	
2	0	0	0	0	504	461	0	482	38	4	
3	0	0	0	0	502	464	0	484	38	4	
4	0	0	0	0	509	461	0	486	38	4	
5	0	0	0	0	505	458	0	489	38	4	
6	0	0	0	0	508	458	0	489	38	4	
7	0	0	0	0	511	463	0	488	38	4	
8	0	0	0	0	508	469	0	485	38	4	
9	0	0	0	0	504	475	0	478	38	4	
10	0	0	0	0	512	472	0	479	38	4	
11	0	0	0	0	510	476	0	482	38	4	
12	0	0	0	0	508	483	0	484	38	4	
13	0	0	0	0	509	488	0	487	38	4	
14	0	0	0	0	511	488	0	489	38	4	
15	0	0	0	0	508	487	0	488	38	4	
0	0	0	0	0	506	488	0	486	38	4	
1	0	0	0	0	518	482	0	480	38	4	
2	0	0	0	0	504	478	0	491	38	4	
3	0	0	0	0	504	481	0	518	38	4	
4	0	0	0	0	506	482	0	527	38	4	
5	0	0	0	0	503	483	0	547	38	4	
6	0	0	0	0	507	487	0	554	38	4	
7	0	0	0	0	506	489	0	556	38	4	
8	0	0	0	0	506	487	0	565	38	4	
9	0	0	0	0	503	482	0	558	38	4	
10	0	0	0	0	508	478	0	565	38	4	
11	0	0	0	0	506	478	0	567	38	4	
12	0	0	0	0	507	473	0	565	38	4	
13	0	0	0	0	518	471	0	574	38	4	
14	0	0	0	0	513	472	0	568	39	4	
15	0	0	0	0	504	471	0	570	38	4	
0	0	0	0	0	506	472	0	564	38	4	
1	0	0	0	0	508	474	0	556	38	4	
2	0	0	0	0	503	475	0	563	39	4	
3	0	0	0	0	511	477	0	556	38	4	
4	0	0	0	0	503	481	0	553	38	4	
5	0	0	0	0	507	484	0	539	38	4	
6	0	0	0	0	508	486	0	522	38	4	
7	0	0	0	0	506	482	0	510	39	4	
8	0	0	0	0	511	478	0	499	38	4	
9	0	0	0	0	507	478	0	514	38	4	
10	0	0	0	0	507	478	0	527	39	4	
11	0	0	0	0	509	473	0	546	39	4	
12	0	0	0	0	511	465	0	533	39	4	
13	0	0	0	0	508	465	0	520	39	4	
14	0	0	0	0	504	468	0	508	39	4	
15	0	0	0	0	507	472	0	499	38	4	
0	0	0	0	0	511	476	0	491	39	4	
1	0	0	0	0	500	475	0	483	39	4	
2	0	0	0	0	507	471	0	477	39	4	
3	0	0	0	0	510	468	0	476	38	4	
4	0	0	0	0	509	461	0	473	38	4	
5	0	0	0	0	510	461	0	475	39	4	
6	0	0	0	0	504	463	0	474	39	4	
7	0	0	0	0	508	466	0	474	39	4	
8	0	0	0	0	512	471	0	470	38	4	
9	0	0	0	0	510	470	0	469	39	4	
10	0	0	0	0	510	472	0	484	39	4	
11	0	0	0	0	508	475	0	473	38	4	
12	0	0	0	0	508	478	0	473	39	4	
13	0	0	0	0	508	482	0	473	39	4	
14	0	0	0	0	504	480	0	471	38	4	
15	0	0	0	0	512	473	0	470	39	4	
0	0	0	0	0	503	469	0	465	39	4	
1	0	0	0	0	506	472	0	464	39	4	
2	0	0	0	0	505	481	0	465	39	4	
3	0	0	0	0	508	491	0	465	39	4	
4	0	0	0	0	512	495	0	468	39	4	
5	0	0	0	0	508	494	0	469	39	4	
6	0	0	0	0	506	500	0	472	39	4	
7	0	0	0	0	503	504	0	472	39	4	
8	0	0	0	0	505	499	0	488	38	4	
9	0	0	0	0	505	499	0	503	39	4	
10	0	0	0	0	515	497	0	513	39	4	
11	0	0	0	0	508	494	0	535	39	4	
12	0	0	0	0	507	490	0	543	39	4	
13	0	0	0	0	511	487	0	552	39	4	
14	0	0	0	0	508	482	0	556	39	4	
15	0	0	0	0	507	481	0	549	39	4	
0	0	0	0	0	514	487	0	557	39	4	
1	0	0	0	0	505	488	0	552	39	4	
2	0	0	0	0	506	491	0	551	39	4	
3	0	0	0	0	511	492	0	558	39	4	
4	0	0	0	0	510	483	0	553	39	4	
5	0	0	0	0	508	473	0	546	39	4	
6	0	0	0	0	507	465	0	553	39	4	
7	0	0	0	0	502	460	0	549	38	4	
8	0	0	0	0	504	462	0	541	38	4	
9	0	0	0	0	504	466	0	531	38	4	
10	0	0	0	0	511	471	0	532	39	4	
11	0	0	0	0	512	479	0	504	39	4	
12	0	0	0	0	509	490	0	495	38	4	
13	0	0	0	0	503	503	0	488	39	4	
14	0	0	0	0	505	513	0	485	39	4	
15	0	0	0	0	508	519	0	485	38	4	
0	0	0	0	0	506	524	0	475	38	4	
1	0	0	0	0	509	520	0	471	38	4	
2	0	0	0	0	507	511	0	471	39	4	
3	0	0	0	0	507	506	0	488	38	4	
4	0	0	0	0	507	503	0	473	38	4	
5	0	0	0	0	506	500	0	475	38	4	
6	0	0	0	0	501	501	0	475	38	4	
7	0	0	0	0	511	501	0	479	38	4	
8	0	0	0	0	506	496	0	470	38	4	
9	0	0	0	0	510	487	0	467	38	4	
10	0	0	0	0	509	481	0	467	39	4	
11	0	0	0	0	506	481	0	468	38	4	
12	0	0	0	0	512	481	0	471	38	4	
13	0	0	0	0	506	477	0	472	38	4	
14	0	0	0	0	513	477	0	475	38	4	
15	0	0	0	0	510	481	0	473	38	4	
0	0	0	0	0	509	490	0	472	38	4	
1	0	0	0	0	497	492	0	467	38	4	
2	0	0	0	0	501	488	0	465	39	4	
3	0	0	0	0	505	487	0	469	38	4	
4	0	0	0	0	504	487	0	471	38	4	
5	0	0	0	0	503	489	0	492	38	4	
6	0	0	0	0	508	492	0	511	38	4	
7	0	0	0	0	511	492	0	519	38	4	
8	0	0	0	0	515	495	0	537	38	4	
9	0	0	0	0	508	496	0	537	38	4	
10	0	0	0	0	505	492	0	542	39	4	
11	0	0	0	0	505	487	0	551	39	4	
12	0	0	0	0	503	483	0	548	39	4	
13	0	0	0	0	504	486	0	559	38	4	
14	0	0	0	0	511	493	0	559	39	4	
15	0	0	0	0	513	504	0	557	39	4	
0	0	0	0	0	512	515	0	558	39	4	
1	0	0	0	0	503	517	0	546	39	4	
2	0	0	0	0	510	518	0	537	39	4	
3	0	0	0	0	501	519	0	524	39	4	
4	0	0	0	0	504	520	0	508	39	4	
5	0	0	0	0	507	519	0	498	39	4	
6	0	0	0	0	507	515	0	490	39	4	
7	0	0	0	0	508	514	0	486	39	4	
8	0	0	0	0	509	516	0	482	38	4	
9	0	0	0	0	502	515	0	478	39	4	
10	0	0	0	0	509	508	0	476	39	4	
11	0	0	0	0	511	497	0	475	39	4	
12	0	0	0	0	504	486	0	479	39	4	
13	0	0	0	0	510	481	0	472	38	4	
14	0	0	0	0	512	480	0	472	39	4	
15	0	0	0	0	504	481	0	471	39	4	
0	0	0	0	0	505	482	0	467	39	4	
1	0	0	0	0	505	483	0	467	39	4	
2	0	0	0	0	511	485	0	464	39	4	
3	0	0	0	0	510	487	0	467	38	4	
4	0	0	0	0	509	489	0	472	39	4	
5	0	0	0	0	511	492	0	475	39	4	
6	0	0	0	0	505	490	0	477	39	4	
7	0	0	0	0	511	489	0	479	39	4	
8	0	0	0	0	505	487	0	479	38	4	
9	0	0	0	0	506	492	0	478	39	4	
10	0	0	0	0	507	495	0	479	39	4	
11	0	0	0	0	507	492	0	480	39	4	
12	0	0	0	0	504	488	0	481	39	4	
13	0	0	0	0	505	480	0	483	38	4	
14	0	0	0	0	511	476	0	499	39	4	
15	0	0	0	0	504	474	0	519	39	4	
0	0	0	0	0	512	470	0	526	39	4	
1	0	0	0	0	508	468	0	543	38	4	
2	0	0	0	0	499	471	0	551	38	4	
3	0	0	0	0	507	473	0	558	38	4	
4	0	0	0	0	497	479	0	570	38	4	
5	0	0	0	0	508	485	0	567	38	4	
6	0	0	0	0	517	496	0	573	38	4	
7	0	0	0	0	511	509	0	571	38	4	
8	0	0	0	0	508	514	0	568	38	4	
9	0	0	0	0	508	515	0	572	38	4	
10	0	0	0	0	506	513	0	566	39	4	
11	0	0	0	0	504	505	0	560	38	4	
12	0	0	0	0	504	502	0	548	38	4	
13	0	0	0	0	503	504	0	536	38	4	
14	0	0	0	0	502	508	0	524	38	4	
15	0	0	0	0	512	511	0	515	39	4	
0	0	0	0	0	502	511	0	508	39	4	
1	0	0	0	0	506	505	0	505	38	4	
2	0	0	0	0	509	503	0	501	39	4	
3	0	0	0	0	507	503	0	501	38	4	
4	0	0	0	0	511	503	0	502	38	4	
5	0	0	0	0	509	501	0	503	38	4	
6	0	0	0	0	507	502	0	503	38	4	
7	0	0	0	0	501	505	0	501	39	4	
8	0	0	0	0	504	508	0	499	38	4	
9	0	0	0	0	509	512	0	497	38	4	
10	0	0	0	0	510	513	0	496	38	4	
11	0	0	0	0	513	513	0	501	38	4	
12	0	0	0	0	509	511	0	502	38	4	
13	0	0	0	0	508	509	0	505	38	4	
14	0	0	0	0	507	505	0	507	38	4	
15	0	0	0	0	505	500	0	504	38	4	
0	0	0	0	0	505	498	0	501	38	4	
1	0	0	0	0	510	495	0	497	38	4	
2	0	0	0	0	502	495	0	499	38	4	
3	0	0	0	0	507	496	0	503	38	4	
4	0	0	0	0	513	489	0	507	38	4	
5	0	0	0	0	506	474	0	508	38	4	
6	0	0	0	0	508	470	0	508	38	4	
7	0	0	0	0	503	472	0	514	38	4	
8	0	0	0	0	504	474	0	537	38	4	
9	0	0	0	0	512	473	0	547	39	4	
10	0	0	0	0	510	471	0	561	39	4	
11	0	0	0	0	508	467	0	575	39	4	
12	0	0	0	0	504	464	0	577	38	4	
13	0	0	0	0	502	472	0	590	39	4	
14	0	0	0	0	510	479	0	588	38	4	
15	0	0	0	0	505	488	0	586	39	4	
0	0	0	0	0	506	503	0	590	39	4	
1	0	0	0	0	511	507	0	580	39	4	
2	0	0	0	0	508	508	0	587	39	4	
3	0	0	0	0	507	510	0	581	39	4	
4	0	0	0	0	502	513	0	575	38	4	
5	0	0	0	0	506	521	0	563	38	4	
6	0	0	0	0	505	532	0	549	38	4	
7	0	0	0	0	504	544	0	537	38	4	
8	0	0	0	0	505	554	0	523	39	4	
9	0	0	0	0	504	560	0	515	39	4	
10	0	0	0	0	503	568	0	510	39	4	
11	0	0	0	0	515	571	0	507	38	4	
12	0	0	0	0	510	569	0	506	38	4	
13	0	0	0	0	506	569	0	502	38	4	
14	0	0	0	0	510	574	0	500	38	4	
15	0	0	0	0	509	584	0	496	38	4	
0	0	0	0	0	504	599	0	499	39	4	
1	0	0	0	0	509	614	0	487	38	4	
2	0	0	0	0	516	627	0	487	38	4	
3	0	0	0	0	505	631	0	487	38	4	
4	0	0	0	0	507	639	0	489	38	4	
5	0	0	0	0	510	644	0	492	38	4	
6	0	0	0	0	503	633	0	492	38	4	
7	0	0	0	0	507	622	0	491	38	4	
8	0	0	0	0	507	620	0	487	39	4	
9	0	0	0	0	508	617	0	486	39	4	
10	0	0	0	0	507	610	0	483	39	4	
11	0	0	0	0	503	602	0	485	39	4	
12	0	0	0	0	508	590	0	485	38	4	
13	0	0	0	0	511	579	0	487	38	4	
14	0	0	0	0	506	568	0	487	39	4	
15	0	0	0	0	510	558	0	487	39	4	
0	0	0	0	0	508	548	0	488	39	4	
1	0	0	0	0	506	534	0	508	39	4	
2	0	0	0	0	511	516	0	527	39	4	
3	0	0	0	0	509	495	0	542	39	4	
4	0	0	0	0	509	482	0	561	39	4	
5	0	0	0	0	505	473	0	561	39	4	
6	0	0	0	0	509	462	0	571	38	4	
7	0	0	0	0	507	450	0	578	39	4	
8	0	0	0	0	507	439	0	567	39	4	
9	0	0	0	0	499	430	0	573	39	4	
10	0	0	0	0	510	420	0	567	39	4	
11	0	0	0	0	504	414	0	572	38	4	
12	0	0	0	0	508	409	0	587	38	4	
13	0	0	0	0	512	405	0	562	39	4	
14	0	0	0	0	519	404	0	556	38	4	
15	0	0	0	0	507	405	0	564	39	4	
0	0	0	0	0	497	406	0	557	38	4	
1	0	0	0	0	508	408	0	564	38	4	
2	0	0	0	0	505	417	0	535	39	4	
3	0	0	0	0	509	426	0	522	39	4	
4	0	0	0	0	510	437	0	510	39	4	
5	0	0	0	0	506	440	0	501	39	4	
6	0	0	0	0	505	440	0	496	38	4	
7	0	0	0	0	508	440	0	488	39	4	
8	0	0	0	0	507	443	0	487	39	4	
9	0	0	0	0	512	449	0	483	39	4	
10	0	0	0	0	509	455	0	490	39	4	
11	0	0	0	0	508	460	0	480	39	4	
12	0	0	0	0	510	462	0	482	38	4	
13	0	0	0	0	504	467	0	483	38	4	
14	0	0	0	0	512	473	0	483	39	4	
15	0	0	0	0	508	480	0	479	38	4	
0	0	0	0	0	504	484	0	475	38	4	
1	0	0	0	0	504	490	0	471	39	4	
2	0	0	0	0	505	492	0	470	39	4	
3	0	0	0	0	506	492	0	475	39	4	
4	0	0	0	0	509	490	0	476	38	4	
5	0	0	0	0	505	487	0	478	39	4	
6	0	0	0	0	511	485	0	480	39	4	
7	0	0	0	0	501	479	0	481	39	4	
8	0	0	0	0	503	479	0	480	39	4	
9	0	0	0	0	514	491	0	475	39	4	
10	0	0	0	0	505	504	0	475	39	4	
11	0	0	0	0	506	509	0	479	39	4	
12	0	0	0	0	511	508	0	483	39	4	
13	0	0	0	0	508	510	0	482	39	4	
14	0	0	0	0	510	515	0	483	39	4	
15	0	0	0	0	507	518	0	481	38	4	
0	0	0	0	0	510	518	0	478	39	4	
1	0	0	0	0	502	514	0	476	39	4	
2	0	0	0	0	510	515	0	474	39	4	
3	0	0	0	0	509	516	0	475	38	4	
4	0	0	0	0	508	523	0	479	38	4	
5	0	0	0	0	508	528	0	481	39	4	
6	0	0	0	0	502	530	0	483	38	4	
7	0	0	0	0	505	529	0	484	38	4	
8	0	0	0	0	511	523	0	482	38	4	
9	0	0	0	0	498	511	0	481	38	4	
10	0	0	0	0	505	502	0	484	39	4	
11	0	0	0	0	505	499	0	485	38	4	
12	0	0	0	0	504	499	0	487	38	4	
13	0	0	0	0	508	500	0	488	38	4	
14	0	0	0	0	516	499	0	487	38	4	
15	0	0	0	0	504	504	0	485	38	4	
0	0	0	0	0	510	509	0	481	38	4	
1	0	0	0	0	510	515	0	478	38	4	
2	0	0	0	0	510	521	0	478	39	4	
3	0	0	0	0	502	524	0	492	38	4	
4	0	0	0	0	513	528	0	484	39	4	
5	0	0	0	0	507	533	0	489	38	4	
6	0	0	0	0	505	538	0	491	38	4	
7	0	0	0	0	507	542	0	489	38	4	
8	0	0	0	0	507	542	0	488	38	4	
9	0	0	0	0	503	540	0	484	38	4	
10	0	0	0	0	508	534	0	484	39	4	
11	0	0	0	0	509	531	0	489	38	4	
12	0	0	0	0	510	531	0	515	38	4	
13	0	0	0	0	515	532	0	536	39	4	
14	0	0	0	0	514	535	0	549	38	4	
15	0	0	0	0	507	535	0	564	38	4	
0	0	0	0	0	503	536	0	559	38	4	
1	0	0	0	0	505	534	0	574	38	4	
2	0	0	0	0	509	530	0	568	38	4	
3	0	0	0	0	508	526	0	569	38	4	
4	0	0	0	0	507	530	0	578	38	4	
5	0	0	0	0	502	535	0	570	38	4	
6	0	0	0	0	507	538	0	575	38	4	
7	0	0	0	0	503	533	0	571	38	4	
8	0	0	0	0	511	523	0	565	38	4	
9	0	0	0	0	506	515	0	569	38	4	
10	0	0	0	0	511	510	0	561	39	4	
11	0	0	0	0	508	507	0	568	39	4	
12	0	0	0	0	509	503	0	568	39	4	
13	0	0	0	0	504	499	0	567	39	4	
14	0	0	0	0	509	498	0	577	39	4	
15	0	0	0	0	504	506	0	587	39	4	
0	0	0	0	0	507	519	0	573	39	4	
1	0	0	0	0	504	528	0	569	39	4	
2	0	0	0	0	512	534	0	565	39	4	
3	0	0	0	0	507	536	0	572	39	4	
4	0	0	0	0	505	535	0	565	39	4	
5	0	0	0	0	507	536	0	557	39	4	
6	0	0	0	0	511	540	0	558	39	4	
7	0	0	0	0	507	545	0	563	39	4	
8	0	0	0	0	505	554	0	553	39	4	
9	0	0	0	0	516	563	0	548	39	4	
10	0	0	0	0	505	565	0	532	39	4	
11	0	0	0	0	508	559	0	519	39	4	
12	0	0	0	0	508	555	0	509	39	4	
13	0	0	0	0	508	550	0	503	39	4	
14	0	0	0	0	509	549	0	499	39	4	
15	0	0	0	0	506	552	0	495	39	4	
0	0	0	0	0	506	552	0	490	39	4	
1	0	0	0	0	515	551	0	486	39	4	
2	0	0	0	0	509	550	0	487	39	4	
3	0	0	0	0	500	543	0	490	39	4	
4	0	0	0	0	504	531	0	488	39	4	
5	0	0	0	0	505	525	0	488	39	4	
6	0	0	0	0	506	530	0	488	39	4	
7	0	0	0	0	508	538	0	499	39	4	
8	0	0	0	0	501	547	0	484	39	4	
9	0	0	0	0	509	558	0	479	39	4	
10	0	0	0	0	508	566	0	479	39	4	
11	0	0	0	0	504	579	0	493	39	4	
12	0	0	0	0	508	588	0	521	39	4	
13	0	0	0	0	504	586	0	529	38	4	
14	0	0	0	0	508	587	0	550	38	4	
15	0	0	0	0	507	592	0	560	38	4	
0	0	0	0	0	511	596	0	564	38	4	
1	0	0	0	0	512	595	0	576	38	4	
2	0	0	0	0	510	593	0	566	39	4	
3	0	0	0	0	506	593	0	560	38	4	
4	0	0	0	0	502	594	0	547	38	4	
5	0	0	0	0	508	594	0	533	38	4	
6	0	0	0	0	510	590	0	522	38	4	
7	0	0	0	0	510	583	0	514	38	4	
8	0	0	0	0	500	582	0	505	38	4	
9	0	0	0	0	508	580	0	500	38	4	
10	0	0	0	0	506	583	0	496	39	4	
11	0	0	0	0	512	583	0	496	38	4	
12	0	0	0	0	513	583	0	494	38	4	
13	0	0	0	0	509	583	0	492	39	4	
14	0	0	0	0	513	582	0	489	38	4	
15	0	0	0	0	510	584	0	487	38	4	
0	0	0	0	0	506	595	0	487	38	4	
1	0	0	0	0	502	605	0	481	38	4	
2	0	0	0	0	507	609	0	478	38	4	
3	0	0	0	0	513	608	0	480	38	4	
4	0	0	0	0	502	605	0	484	38	4	
5	0	0	0	0	500	603	0	489	38	4	
6	0	0	0	0	505	602	0	489	38	4	
7	0	0	0	0	514	600	0	490	38	4	
8	0	0	0	0	504	591	0	487	38	4	
9	0	0	0	0	504	580	0	486	38	4	
10	0	0	0	0	513	575	0	487	38	4	
11	0	0	0	0	510	572	0	488	38	4	
12	0	0	0	0	507	567	0	491	38	4	
13	0	0	0	0	504	569	0	491	38	4	
14	0	0	0	0	512	569	0	496	38	4	
15	0	0	0	0	508	562	0	498	38	4	
0	0	0	0	0	502	559	0	521	38	4	
1	0	0	0	0	506	556	0	530	38	4	
2	0	0	0	0	510	556	0	544	39	4	
3	0	0	0	0	506	554	0	563	38	4	
4	0	0	0	0	511	551	0	562	38	4	
5	0	0	0	0	515	548	0	576	38	4	
6	0	0	0	0	511	548	0	575	38	4	
7	0	0	0	0	505	548	0	575	38	4	
8	0	0	0	0	513	547	0	580	38	4	
9	0	0	0	0	508	543	0	569	38	4	
10	0	0	0	0	504	540	0	575	38	4	
11	0	0	0	0	510	536	0	572	38	4	
12	0	0	0	0	496	531	0	565	38	4	
13	0	0	0	0	504	534	0	551	38	4	
14	0	0	0	0	508	535	0	536	38	4	
15	0	0	0	0	504	532	0	523	38	4	
0	0	0	0	0	507	534	0	512	39	4	
1	0	0	0	0	508	534	0	522	38	4	
2	0	0	0	0	506	537	0	538	39	4	
3	0	0	0	0	509	534	0	546	39	4	
4	0	0	0	0	512	528	0	548	39	4	
5	0	0	0	0	508	524	0	561	39	4	
6	0	0	0	0	509	520	0	564	39	4	
7	0	0	0	0	500	518	0	556	39	4	
8	0	0	0	0	508	513	0	549	39	4	
9	0	0	0	0	510	504	0	536	39	4	
10	0	0	0	0	507	498	0	523	39	4	
11	0	0	0	0	509	491	0	515	38	4	
12	0	0	0	0	504	484	0	505	39	4	
13	0	0	0	0	504	481	0	499	39	4	
14	0	0	0	0	508	481	0	497	38	4	
15	0	0	0	0	499	480	0	494	39	4	
0	0	0	0	0	508	480	0	492	38	4	
1	0	0	0	0	511	481	0	485	38	4	
2	0	0	0	0	509	481	0	485	39	4	
3	0	0	0	0	502	482	0	485	39	4	
4	0	0	0	0	511	483	0	487	38	4	
5	0	0	0	0	505	483	0	491	38	4	
6	0	0	0	0	515	478	0	491	39	4	
7	0	0	0	0	507	475	0	492	38	4	
8	0	0	0	0	507	478	0	491	38	4	
9	0	0	0	0	508	481	0	487	38	4	
10	0	0	0	0	514	479	0	497	39	4	
11	0	0	0	0	517	475	0	488	38	4	
12	0	0	0	0	510	471	0	491	38	4	
13	0	0	0	0	504	466	0	492	39	4	
14	0	0	0	0	502	469	0	495	38	4	
15	0	0	0	0	501	468	0	492	38	4	
0	0	0	0	0	505	471	0	490	38	4	
1	0	0	0	0	506	472	0	485	38	4	
2	0	0	0	0	508	468	0	486	39	4	
3	0	0	0	0	511	470	0	489	38	4	
4	0	0	0	0	510	475	0	519	38	4	
5	0	0	0	0	507	480	0	532	38	4	
6	0	0	0	0	505	486	0	543	38	4	
7	0	0	0	0	501	490	0	564	38	4	
8	0	0	0	0	510	489	0	568	39	4	
9	0	0	0	0	512	487	0	573	38	4	
10	0	0	0	0	507	486	0	583	38	4	
11	0	0	0	0	512	486	0	577	38	4	
12	0	0	0	0	510	489	0	588	38	4	
13	0	0	0	0	504	492	0	585	38	4	
14	0	0	0	0	507	490	0	585	38	4	
15	0	0	0	0	507	484	0	586	38	4	
0	0	0	0	0	508	480	0	571	38	4	
1	0	0	0	0	503	478	0	561	38	4	
2	0	0	0	0	500	473	0	546	38	4	
3	0	0	0	0	498	469	0	533	38	4	
4	0	0	0	0	509	469	0	520	38	4	
5	0	0	0	0	507	470	0	513	38	4	
6	0	0	0	0	509	471	0	507	38	4	
7	0	0	0	0	517	472	0	504	38	4	
8	0	0	0	0	509	476	0	494	38	4	
9	0	0	0	0	504	481	0	489	38	4	
10	0	0	0	0	511	488	0	488	39	4	
11	0	0	0	0	506	490	0	489	38	4	
12	0	0	0	0	509	484	0	492	38	4	
13	0	0	0	0	508	481	0	489	38	4	
14	0	0	0	0	509	478	0	491	39	4	
15	0	0	0	0	508	474	0	492	38	4	
0	0	0	0	0	507	473	0	497	39	4	
1	0	0	0	0	502	474	0	485	39	4	
2	0	0	0	0	507	474	0	486	39	4	
3	0	0	0	0	503	473	0	487	39	4	
4	0	0	0	0	512	472	0	491	39	4	
5	0	0	0	0	510	471	0	494	39	4	
6	0	0	0	0	505	475	0	492	39	4	
7	0	0	0	0	508	477	0	491	39	4	
8	0	0	0	0	506	476	0	488	39	4	
9	0	0	0	0	508	472	0	484	39	4	
10	0	0	0	0	503	468	0	488	39	4	
11	0	0	0	0	506	467	0	487	39	4	
12	0	0	0	0	512	467	0	489	39	4	
13	0	0	0	0	506	468	0	504	39	4	
14	0	0	0	0	508	472	0	531	39	4	
15	0	0	0	0	509	476	0	539	39	4	
0	0	0	0	0	507	478	0	556	39	4	
1	0	0	0	0	502	478	0	564	39	4	
2	0	0	0	0	511	480	0	568	39	4	
3	0	0	0	0	511	477	0	579	39	4	
4	0	0	0	0	506	476	0	574	39	4	
5	0	0	0	0	510	481	0	577	39	4	
6	0	0	0	0	505	478	0	577	39	4	
7	0	0	0	0	506	470	0	573	39	4	
8	0	0	0	0	504	466	0	576	39	4	
9	0	0	0	0	507	467	0	565	39	4	
10	0	0	0	0	507	469	0	553	39	4	
11	0	0	0	0	510	471	0	537	38	4	
12	0	0	0	0	506	472	0	521	39	4	
13	0	0	0	0	510	474	0	509	39	4	
14	0	0	0	0	510	476	0	500	38	4	
15	0	0	0	0	506	477	0	492	38	4	
0	0	0	0	0	505	480	0	487	38	4	
1	0	0	0	0	509	479	0	493	39	4	
2	0	0	0	0	507	476	0	516	39	4	
3	0	0	0	0	507	478	0	521	39	4	
4	0	0	0	0	507	481	0	526	38	4	
5	0	0	0	0	511	486	0	520	38	4	
6	0	0	0	0	506	488	0	511	39	4	
7	0	0	0	0	502	490	0	511	38	4	
8	0	0	0	0	508	492	0	496	38	4	
9	0	0	0	0	510	481	0	487	38	4	
10	0	0	0	0	507	479	0	483	39	4	
11	0	0	0	0	514	485	0	480	38	4	
12	0	0	0	0	509	484	0	477	38	4	
13	0	0	0	0	508	483	0	477	38	4	
14	0	0	0	0	514	484	0	478	38	4	
15	0	0	0	0	505	485	0	477	38	4	
0	0	0	0	0	509	485	0	474	38	4	
1	0	0	0	0	505	486	0	471	38	4	
2	0	0	0	0	509	484	0	472	38	4	
3	0	0	0	0	511	483	0	473	38	4	
4	0	0	0	0	510	483	0	476	38	4	
5	0	0	0	0	509	482	0	479	38	4	
6	0	0	0	0	511	478	0	480	38	4	
7	0	0	0	0	507	474	0	482	38	4	
8	0	0	0	0	511	473	0	486	38	4	
9	0	0	0	0	511	475	0	478	38	4	
10	0	0	0	0	506	479	0	479	39	4	
11	0	0	0	0	504	481	0	481	38	4	
12	0	0	0	0	505	486	0	483	38	4	
13	0	0	0	0	512	487	0	487	38	4	
14	0	0	0	0	514	489	0	484	38	4	
15	0	0	0	0	500	491	0	484	38	4	
0	0	0	0	0	504	490	0	487	38	4	
1	0	0	0	0	504	492	0	510	38	4	
2	0	0	0	0	511	496	0	526	38	4	
3	0	0	0	0	511	498	0	539	38	4	
4	0	0	0	0	504	497	0	553	39	4	
5	0	0	0	0	511	502	0	553	38	4	
6	0	0	0	0	506	501	0	568	39	4	
7	0	0	0	0	508	495	0	562	38	4	
8	0	0	0	0	499	491	0	563	39	4	
9	0	0	0	0	506	492	0	563	38	4	
10	0	0	0	0	508	497	0	553	39	4	
11	0	0	0	0	511	494	0	562	38	4	
12	0	0	0	0	511	490	0	557	39	4	
13	0	0	0	0	505	491	0	550	38	4	
14	0	0	0	0	506	493	0	548	39	4	
15	0	0	0	0	509	496	0	575	39	4	
0	0	0	0	0	509	497	0	549	39	4	
1	0	0	0	0	510	495	0	543	38	4	
2	0	0	0	0	506	494	0	530	38	4	
3	0	0	0	0	508	498	0	515	38	4	
4	0	0	0	0	507	500	0	515	38	4	
5	0	0	0	0	508	501	0	493	39	4	
6	0	0	0	0	505	500	0	488	38	4	
7	0	0	0	0	504	495	0	487	38	4	
8	0	0	0	0	509	486	0	484	38	4	
9	0	0	0	0	513	482	0	491	38	4	
10	0	0	0	0	512	487	0	476	38	4	
11	0	0	0	0	507	493	0	475	38	4	
12	0	0	0	0	503	498	0	475	38	4	
13	0	0	0	0	508	498	0	478	38	4	
14	0	0	0	0	515	500	0	493	38	4	
15	0	0	0	0	511	501	0	482	38	4	
0	0	0	0	0	508	500	0	479	39	4	
1	0	0	0	0	513	502	0	478	38	4	
2	0	0	0	0	508	506	0	478	39	4	
3	0	0	0	0	505	508	0	478	38	4	
4	0	0	0	0	508	508	0	480	38	4	
5	0	0	0	0	506	509	0	480	38	4	
6	0	0	0	0	510	505	0	481	38	4	
7	0	0	0	0	515	500	0	481	38	4	
8	0	0	0	0	504	497	0	479	38	4	
9	0	0	0	0	503	499	0	479	39	4	
10	0	0	0	0	508	501	0	476	38	4	
11	0	0	0	0	507	501	0	476	38	4	
12	0	0	0	0	500	501	0	481	38	4	
13	0	0	0	0	502	503	0	484	38	4	
14	0	0	0	0	504	505	0	489	38	4	
15	0	0	0	0	507	497	0	489	38	4	
0	0	0	0	0	503	493	0	487	38	4	
1	0	0	0	0	506	489	0	484	38	4	
2	0	0	0	0	508	484	0	492	39	4	
3	0	0	0	0	503	480	0	486	38	4	
4	0	0	0	0	506	479	0	487	38	4	
5	0	0	0	0	504	481	0	489	38	4	
6	0	0	0	0	512	485	0	490	39	4	
7	0	0	0	0	513	488	0	490	38	4	
8	0	0	0	0	502	492	0	487	38	4	
9	0	0	0	0	503	497	0	480	38	4	
10	0	0	0	0	515	497	0	480	39	4	
11	0	0	0	0	516	500	0	481	38	4	
12	0	0	0	0	502	499	0	483	38	4	
13	0	0	0	0	506	495	0	485	38	4	
14	0	0	0	0	507	490	0	485	38	4	
15	0	0	0	0	508	481	0	487	38	4	
0	0	0	0	0	504	473	0	485	39	4	
1	0	0	0	0	504	472	0	481	38	4	
2	0	0	0	0	508	474	0	482	39	4	
3	0	0	0	0	515	483	0	483	38	4	
4	0	0	0	0	508	488	0	487	38	4	
5	0	0	0	0	510	486	0	492	38	4	
6	0	0	0	0	506	482	0	495	39	4	
7	0	0	0	0	503	480	0	493	39	4	
8	0	0	0	0	499	481	0	489	38	4	
9	0	0	0	0	504	482	0	505	38	4	
10	0	0	0	0	507	481	0	529	39	4	
11	0	0	0	0	512	478	0	544	38	4	
12	0	0	0	0	506	485	0	562	38	4	
13	0	0	0	0	500	493	0	568	38	4	
14	0	0	0	0	502	495	0	575	38	4	
15	0	0	0	0	506	491	0	578	39	4	
0	0	0	0	0	510	487	0	569	38	4	
1	0	0	0	0	507	489	0	575	38	4	
2	0	0	0	0	515	497	0	573	39	4	
3	0	0	0	0	514	502	0	575	38	4	
4	0	0	0	0	508	508	0	581	38	4	
5	0	0	0	0	505	508	0	576	39	4	
6	0	0	0	0	509	503	0	580	39	4	
7	0	0	0	0	510	505	0	570	38	4	
8	0	0	0	0	507	507	0	567	38	4	
9	0	0	0	0	513	507	0	569	39	4	
10	0	0	0	0	510	505	0	563	39	4	
11	0	0	0	0	504	503	0	572	39	4	
12	0	0	0	0	509	500	0	566	38	4	
13	0	0	0	0	505	495	0	566	39	4	
14	0	0	0	0	497	489	0	572	38	4	
15	0	0	0	0	505	484	0	561	38	4	
0	0	0	0	0	502	483	0	569	38	4	
1	0	0	0	0	512	483	0	563	39	4	
2	0	0	0	0	505	485	0	556	39	4	
3	0	0	0	0	507	488	0	545	38	4	
4	0	0	0	0	509	491	0	529	39	4	
5	0	0	0	0	512	493	0	516	39	4	
6	0	0	0	0	511	495	0	504	39	4	
7	0	0	0	0	509	496	0	497	39	4	
8	0	0	0	0	509	497	0	489	39	4	
9	0	0	0	0	504	499	0	486	38	4	
10	0	0	0	0	508	494	0	482	39	4	
11	0	0	0	0	507	488	0	479	38	4	
12	0	0	0	0	506	485	0	481	39	4	
13	0	0	0	0	505	483	0	478	39	4	
14	0	0	0	0	509	482	0	479	38	4	
15	0	0	0	0	510	480	0	479	38	4	
0	0	0	0	0	504	476	0	475	39	4	
1	0	0	0	0	511	473	0	472	38	4	
2	0	0	0	0	507	472	0	474	39	4	
3	0	0	0	0	511	475	0	475	39	4	
4	0	0	0	0	503	478	0	478	39	4	
5	0	0	0	0	503	480	0	481	39	4	
6	0	0	0	0	507	482	0	480	39	4	
7	0	0	0	0	504	487	0	480	38	4	
8	0	0	0	0	505	496	0	476	38	4	
9	0	0	0	0	499	500	0	473	38	4	
10	0	0	0	0	509	499	0	473	39	4	
11	0	0	0	0	508	498	0	474	38	4	
12	0	0	0	0	510	502	0	478	39	4	
13	0	0	0	0	510	511	0	481	38	4	
14	0	0	0	0	504	524	0	488	38	4	
15	0	0	0	0	508	533	0	507	38	4	
0	0	0	0	0	509	548	0	517	38	4	
1	0	0	0	0	504	565	0	526	38	4	
2	0	0	0	0	503	580	0	546	39	4	
3	0	0	0	0	508	592	0	548	39	4	
4	0	0	0	0	506	606	0	559	38	4	
5	0	0	0	0	515	619	0	560	39	4	
6	0	0	0	0	511	630	0	558	38	4	
7	0	0	0	0	503	638	0	565	38	4	
8	0	0	0	0	502	643	0	553	38	4	
9	0	0	0	0	507	646	0	558	38	4	
10	0	0	0	0	506	644	0	560	39	4	
11	0	0	0	0	510	639	0	556	38	4	
12	0	0	0	0	506	635	0	545	38	4	
13	0	0	0	0	508	631	0	532	38	4	
14	0	0	0	0	518	624	0	518	38	4	
15	0	0	0	0	503	612	0	521	38	4	
0	0	0	0	0	509	603	0	495	38	4	
1	0	0	0	0	509	593	0	487	38	4	
2	0	0	0	0	511	581	0	482	38	4	
3	0	0	0	0	509	563	0	480	39	4	
4	0	0	0	0	511	544	0	483	38	4	
5	0	0	0	0	504	532	0	479	38	4	
6	0	0	0	0	508	520	0	480	38	4	
7	0	0	0	0	504	504	0	480	38	4	
8	0	0	0	0	509	487	0	477	38	4	
9	0	0	0	0	496	476	0	477	38	4	
10	0	0	0	0	509	471	0	478	38	4	
11	0	0	0	0	506	462	0	481	38	4	
12	0	0	0	0	516	450	0	484	38	4	
13	0	0	0	0	509	432	0	488	38	4	
14	0	0	0	0	504	417	0	485	38	4	
15	0	0	0	0	508	408	0	487	38	4	
0	0	0	0	0	498	405	0	484	38	4	
1	0	0	0	0	508	403	0	484	38	4	
2	0	0	0	0	507	401	0	479	38	4	
3	0	0	0	0	515	405	0	481	38	4	
4	0	0	0	0	508	406	0	485	38	4	
5	0	0	0	0	512	410	0	488	38	4	
6	0	0	0	0	512	421	0	492	38	4	
7	0	0	0	0	509	425	0	492	38	4	
8	0	0	0	0	511	428	0	507	38	4	
9	0	0	0	0	507	436	0	523	38	4	
10	0	0	0	0	511	444	0	532	39	4	
11	0	0	0	0	508	448	0	552	38	4	
12	0	0	0	0	509	453	0	560	39	4	
13	0	0	0	0	507	457	0	567	38	4	
14	0	0	0	0	504	455	0	573	39	4	
15	0	0	0	0	505	451	0	567	39	4	
0	0	0	0	0	503	451	0	569	38	4	
1	0	0	0	0	509	452	0	561	38	4	
2	0	0	0	0	513	455	0	561	39	4	
3	0	0	0	0	504	459	0	568	39	4	
4	0	0	0	0	512	464	0	563	38	4	
5	0	0	0	0	510	473	0	553	38	4	
6	0	0	0	0	510	482	0	558	38	4	
7	0	0	0	0	508	487	0	555	38	4	
8	0	0	0	0	503	487	0	545	38	4	
9	0	0	0	0	514	485	0	535	38	4	
10	0	0	0	0	508	481	0	518	39	4	
11	0	0	0	0	504	478	0	504	38	4	
12	0	0	0	0	501	472	0	494	39	4	
13	0	0	0	0	504	471	0	502	39	4	
14	0	0	0	0	502	472	0	479	39	4	
15	0	0	0	0	505	478	0	476	39	4	
0	0	0	0	0	515	487	0	470	38	4	
1	0	0	0	0	513	494	0	465	39	4	
2	0	0	0	0	508	498	0	471	39	4	
3	0	0	0	0	510	497	0	466	39	4	
4	0	0	0	0	508	494	0	467	38	4	
5	0	0	0	0	512	489	0	469	38	4	
6	0	0	0	0	512	484	0	469	38	4	
7	0	0	0	0	502	486	0	476	39	4	
8	0	0	0	0	509	487	0	465	38	4	
9	0	0	0	0	513	494	0	465	39	4	
10	0	0	0	0	502	504	0	464	39	4	
11	0	0	0	0	502	515	0	465	38	4	
12	0	0	0	0	498	520	0	472	38	4	
13	0	0	0	0	507	519	0	472	39	4	
14	0	0	0	0	509	515	0	473	39	4	
15	0	0	0	0	503	515	0	474	38	4	
0	0	0	0	0	506	517	0	473	39	4	
1	0	0	0	0	507	516	0	471	39	4	
2	0	0	0	0	507	515	0	467	39	4	
3	0	0	0	0	503	519	0	468	39	4	
4	0	0	0	0	519	519	0	470	39	4	
5	0	0	0	0	505	514	0	489	38	4	
6	0	0	0	0	511	510	0	515	39	4	
7	0	0	0	0	504	504	0	521	38	4	
8	0	0	0	0	507	497	0	539	39	4	
9	0	0	0	0	511	492	0	539	38	4	
10	0	0	0	0	508	491	0	543	39	4	
11	0	0	0	0	508	488	0	559	39	4	
12	0	0	0	0	509	486	0	544	39	4	
13	0	0	0	0	509	486	0	554	38	4	
14	0	0	0	0	505	490	0	551	38	4	
15	0	0	0	0	512	495	0	551	38	4	
0	0	0	0	0	507	500	0	553	39	4	
1	0	0	0	0	515	501	0	539	38	4	
2	0	0	0	0	512	506	0	530	39	4	
3	0	0	0	0	503	515	0	515	39	4	
4	0	0	0	0	506	524	0	500	38	4	
5	0	0	0	0	515	534	0	494	38	4	
6	0	0	0	0	509	537	0	484	39	4	
7	0	0	0	0	503	543	0	480	38	4	
8	0	0	0	0	513	549	0	474	38	4	
9	0	0	0	0	506	556	0	469	38	4	
10	0	0	0	0	504	559	0	466	39	4	
11	0	0	0	0	502	556	0	464	38	4	
12	0	0	0	0	509	548	0	465	38	4	
13	0	0	0	0	510	542	0	466	39	4	
14	0	0	0	0	511	535	0	469	38	4	
15	0	0	0	0	508	529	0	463	38	4	
0	0	0	0	0	510	524	0	460	38	4	
1	0	0	0	0	503	521	0	460	39	4	
2	0	0	0	0	504	521	0	458	39	4	
3	0	0	0	0	504	525	0	462	39	4	
4	0	0	0	0	511	526	0	463	39	4	
5	0	0	0	0	506	526	0	468	39	4	
6	0	0	0	0	500	525	0	472	39	4	
7	0	0	0	0	507	528	0	471	39	4	
8	0	0	0	0	512	530	0	468	38	4	
9	0	0	0	0	502	529	0	463	39	4	
10	0	0	0	0	505	526	0	464	39	4	
11	0	0	0	0	510	525	0	468	39	4	
12	0	0	0	0	505	529	0	470	39	4	
13	0	0	0	0	511	531	0	473	39	4	
14	0	0	0	0	506	532	0	484	39	4	
15	0	0	0	0	513	528	0	508	39	4	
0	0	0	0	0	508	524	0	515	39	4	
1	0	0	0	0	509	521	0	534	39	4	
2	0	0	0	0	508	522	0	541	39	4	
3	0	0	0	0	503	525	0	545	39	4	
4	0	0	0	0	505	528	0	558	39	4	
5	0	0	0	0	506	530	0	553	39	4	
6	0	0	0	0	507	533	0	562	39	4	
7	0	0	0	0	507	536	0	558	39	4	
8	0	0	0	0	502	538	0	555	39	4	
9	0	0	0	0	506	540	0	562	39	4	
10	0	0	0	0	507	547	0	554	39	4	
11	0	0	0	0	515	551	0	547	39	4	
12	0	0	0	0	512	556	0	532	39	4	
13	0	0	0	0	511	557	0	520	39	4	
14	0	0	0	0	506	558	0	509	39	4	
15	0	0	0	0	506	559	0	504	39	4	
0	0	0	0	0	504	557	0	494	39	4	
1	0	0	0	0	508	558	0	489	39	4	
2	0	0	0	0	512	560	0	487	39	4	
3	0	0	0	0	507	563	0	486	38	4	
4	0	0	0	0	511	566	0	488	39	4	
5	0	0	0	0	508	571	0	486	38	4	
6	0	0	0	0	503	575	0	483	38	4	
7	0	0	0	0	507	575	0	482	38	4	
8	0	0	0	0	510	577	0	480	38	4	
9	0	0	0	0	503	578	0	478	38	4	
10	0	0	0	0	512	575	0	476	39	4	
11	0	0	0	0	510	574	0	479	38	4	
12	0	0	0	0	509	582	0	481	38	4	
13	0	0	0	0	507	588	0	486	38	4	
14	0	0	0	0	509	589	0	484	38	4	
15	0	0	0	0	509	589	0	481	38	4	
0	0	0	0	0	503	588	0	479	38	4	
1	0	0	0	0	509	587	0	481	39	4	
2	0	0	0	0	505	586	0	487	39	4	
3	0	0	0	0	507	585	0	487	38	4	
4	0	0	0	0	514	582	0	488	38	4	
5	0	0	0	0	510	579	0	491	38	4	
6	0	0	0	0	510	571	0	502	38	4	
7	0	0	0	0	498	565	0	497	38	4	
8	0	0	0	0	507	571	0	520	38	4	
9	0	0	0	0	512	580	0	531	38	4	
10	0	0	0	0	504	585	0	545	38	4	
11	0	0	0	0	507	588	0	571	38	4	
12	0	0	0	0	508	589	0	561	38	4	
13	0	0	0	0	510	589	0	575	38	4	
14	0	0	0	0	511	585	0	572	38	4	
15	0	0	0	0	504	584	0	573	38	4	
0	0	0	0	0	508	583	0	578	38	4	
1	0	0	0	0	511	582	0	566	38	4	
2	0	0	0	0	502	579	0	573	38	4	
3	0	0	0	0	501	572	0	569	38	4	
4	0	0	0	0	512	566	0	563	38	4	
5	0	0	0	0	511	558	0	551	38	4	
6	0	0	0	0	506	556	0	534	38	4	
7	0	0	0	0	511	559	0	520	38	4	
8	0	0	0	0	505	560	0	508	38	4	
9	0	0	0	0	507	555	0	518	38	4	
10	0	0	0	0	510	551	0	539	38	4	
11	0	0	0	0	508	547	0	543	38	4	
12	0	0	0	0	512	548	0	547	38	4	
13	0	0	0	0	507	546	0	561	38	4	
14	0	0	0	0	507	541	0	564	38	4	
15	0	0	0	0	502	536	0	556	39	4	
0	0	0	0	0	507	531	0	547	38	4	
1	0	0	0	0	502	530	0	531	38	4	
2	0	0	0	0	508	531	0	519	39	4	
3	0	0	0	0	504	533	0	508	38	4	
4	0	0	0	0	509	533	0	499	38	4	
5	0	0	0	0	515	528	0	495	38	4	
6	0	0	0	0	509	526	0	493	38	4	
7	0	0	0	0	502	526	0	498	38	4	
8	0	0	0	0	500	526	0	488	38	4	
9	0	0	0	0	512	523	0	486	39	4	
10	0	0	0	0	507	515	0	486	39	4	
11	0	0	0	0	505	505	0	485	39	4	
12	0	0	0	0	500	494	0	487	38	4	
13	0	0	0	0	513	488	0	486	39	4	
14	0	0	0	0	516	487	0	485	39	4	
15	0	0	0	0	512	486	0	483	39	4	
0	0	0	0	0	506	484	0	479	39	4	
1	0	0	0	0	505	479	0	475	39	4	
2	0	0	0	0	507	476	0	473	39	4	
3	0	0	0	0	503	476	0	476	38	4	
4	0	0	0	0	515	476	0	481	39	4	
5	0	0	0	0	503	479	0	485	39	4	
6	0	0	0	0	504	487	0	484	38	4	
7	0	0	0	0	506	491	0	483	39	4	
8	0	0	0	0	516	491	0	481	39	4	
9	0	0	0	0	507	485	0	478	38	4	
10	0	0	0	0	503	484	0	480	39	4	
11	0	0	0	0	511	487	0	479	38	4	
12	0	0	0	0	516	487	0	480	38	4	
13	0	0	0	0	506	479	0	484	38	4	
14	0	0	0	0	504	471	0	486	38	4	
15	0	0	0	0	501	469	0	489	38	4	
0	0	0	0	0	502	474	0	484	38	4	
1	0	0	0	0	507	478	0	483	38	4	
2	0	0	0	0	509	480	0	483	39	4	
3	0	0	0	0	508	480	0	486	38	4	
4	0	0	0	0	509	479	0	486	38	4	
5	0	0	0	0	512	480	0	486	38	4	
6	0	0	0	0	507	486	0	484	38	4	
7	0	0	0	0	504	492	0	483	38	4	
8	0	0	0	0	506	494	0	481	38	4	
9	0	0	0	0	511	493	0	475	38	4	
10	0	0	0	0	503	492	0	475	38	4	
11	0	0	0	0	506	491	0	476	38	4	
12	0	0	0	0	511	487	0	478	38	4	
13	0	0	0	0	507	478	0	480	38	4	
14	0	0	0	0	507	473	0	481	38	4	
15	0	0	0	0	505	467	0	479	38	4	
0	0	0	0	0	508	460	0	476	38	4	
1	0	0	0	0	510	459	0	475	38	4	
2	0	0	0	0	509	463	0	473	38	4	
3	0	0	0	0	510	466	0	478	38	4	
4	0	0	0	0	507	468	0	504	38	4	
5	0	0	0	0	508	470	0	522	38	4	
6	0	0	0	0	512	467	0	536	38	4	
7	0	0	0	0	504	464	0	552	38	4	
8	0	0	0	0	509	464	0	551	38	4	
9	0	0	0	0	509	464	0	561	38	4	
10	0	0	0	0	508	465	0	566	38	4	
11	0	0	0	0	507	472	0	562	38	4	
12	0	0	0	0	509	479	0	572	38	4	
13	0	0	0	0	507	483	0	566	39	4	
14	0	0	0	0	504	481	0	570	38	4	
15	0	0	0	0	501	476	0	564	38	4	
0	0	0	0	0	506	474	0	553	38	4	
1	0	0	0	0	504	475	0	557	39	4	
2	0	0	0	0	507	475	0	550	39	4	
3	0	0	0	0	507	476	0	571	38	4	
4	0	0	0	0	512	479	0	557	38	4	
5	0	0	0	0	504	482	0	554	38	4	
6	0	0	0	0	504	482	0	561	38	4	
7	0	0	0	0	509	479	0	552	39	4	
8	0	0	0	0	510	473	0	558	38	4	
9	0	0	0	0	507	471	0	553	38	4	
10	0	0	0	0	504	473	0	546	39	4	
11	0	0	0	0	508	477	0	533	38	4	
12	0	0	0	0	505	483	0	518	39	4	
13	0	0	0	0	502	487	0	504	38	4	
14	0	0	0	0	506	491	0	492	38	4	
15	0	0	0	0	512	496	0	485	39	4	
0	0	0	0	0	511	494	0	480	38	4	
1	0	0	0	0	513	487	0	480	39	4	
2	0	0	0	0	512	485	0	464	39	4	
3	0	0	0	0	512	486	0	463	39	4	
4	0	0	0	0	504	476	0	465	39	4	
5	0	0	0	0	508	468	0	466	39	4	
6	0	0	0	0	500	467	0	471	39	4	
7	0	0	0	0	503	458	0	467	38	4	
8	0	0	0	0	503	449	0	465	38	4	
9	0	0	0	0	512	439	0	463	39	4	
10	0	0	0	0	513	439	0	463	39	4	
11	0	0	0	0	510	445	0	466	38	4	
12	0	0	0	0	509	449	0	465	39	4	
13	0	0	0	0	512	454	0	467	39	4	
14	0	0	0	0	511	456	0	469	39	4	
15	0	0	0	0	508	457	0	471	38	4	
0	0	0	0	0	506	464	0	466	39	4	
1	0	0	0	0	504	470	0	461	38	4	
2	0	0	0	0	506	477	0	460	39	4	
3	0	0	0	0	514	481	0	464	39	4	
4	0	0	0	0	503	486	0	467	39	4	
5	0	0	0	0	507	488	0	471	38	4	
6	0	0	0	0	501	488	0	473	39	4	
7	0	0	0	0	504	484	0	490	39	4	
8	0	0	0	0	505	480	0	510	39	4	
9	0	0	0	0	513	477	0	515	38	4	
10	0	0	0	0	509	479	0	536	38	4	
11	0	0	0	0	508	482	0	540	38	4	
12	0	0	0	0	507	482	0	547	38	4	
13	0	0	0	0	509	477	0	559	39	4	
14	0	0	0	0	504	471	0	554	39	4	
15	0	0	0	0	504	464	0	561	39	4	
0	0	0	0	0	510	463	0	551	38	4	
1	0	0	0	0	506	465	0	549	39	4	
2	0	0	0	0	506	468	0	556	39	4	
3	0	0	0	0	512	469	0	551	39	4	
4	0	0	0	0	504	472	0	543	39	4	
5	0	0	0	0	497	477	0	529	39	4	
6	0	0	0	0	509	483	0	514	39	4	
7	0	0	0	0	509	488	0	498	39	4	
8	0	0	0	0	507	495	0	487	38	4	
9	0	0	0	0	507	497	0	478	39	4	
10	0	0	0	0	513	494	0	472	39	4	
11	0	0	0	0	506	491	0	471	38	4	
12	0	0	0	0	510	492	0	470	38	4	
13	0	0	0	0	514	497	0	472	38	4	
14	0	0	0	0	507	495	0	474	38	4	
15	0	0	0	0	515	492	0	472	38	4	
0	0	0	0	0	501	486	0	466	38	4	
1	0	0	0	0	506	479	0	463	39	4	
2	0	0	0	0	501	475	0	463	39	4	
3	0	0	0	0	507	472	0	467	38	4	
4	0	0	0	0	509	469	0	471	38	4	
5	0	0	0	0	509	472	0	471	39	4	
6	0	0	0	0	508	479	0	472	39	4	
7	0	0	0	0	505	483	0	472	38	4	
8	0	0	0	0	504	489	0	469	39	4	
9	0	0	0	0	507	490	0	467	38	4	
10	0	0	0	0	510	487	0	465	39	4	
11	0	0	0	0	507	484	0	468	39	4	
12	0	0	0	0	502	487	0	471	39	4	
13	0	0	0	0	504	493	0	477	39	4	
14	0	0	0	0	504	496	0	476	39	4	
15	0	0	0	0	513	496	0	475	38	4	
0	0	0	0	0	508	494	0	472	39	4	
1	0	0	0	0	508	492	0	471	38	4	
2	0	0	0	0	509	496	0	473	39	4	
3	0	0	0	0	507	494	0	498	38	4	
4	0	0	0	0	511	491	0	516	39	4	
5	0	0	0	0	510	494	0	531	39	4	
6	0	0	0	0	511	492	0	549	39	4	
7	0	0	0	0	502	487	0	548	39	4	
8	0	0	0	0	508	490	0	558	39	4	
9	0	0	0	0	511	498	0	561	38	4	
10	0	0	0	0	511	499	0	563	39	4	
11	0	0	0	0	503	495	0	571	38	4	
12	0	0	0	0	507	491	0	565	39	4	
13	0	0	0	0	511	484	0	571	38	4	
14	0	0	0	0	510	481	0	575	38	4	
15	0	0	0	0	508	485	0	572	38	4	
0	0	0	0	0	503	486	0	578	38	4	
1	0	0	0	0	499	482	0	566	38	4	
2	0	0	0	0	505	479	0	556	39	4	
3	0	0	0	0	512	477	0	542	38	4	
4	0	0	0	0	505	473	0	526	39	4	
5	0	0	0	0	504	473	0	515	38	4	
6	0	0	0	0	509	475	0	506	39	4	
7	0	0	0	0	510	479	0	499	38	4	
8	0	0	0	0	511	485	0	491	38	4	
9	0	0	0	0	508	489	0	487	39	4	
10	0	0	0	0	507	494	0	486	39	4	
11	0	0	0	0	510	498	0	486	38	4	
12	0	0	0	0	509	498	0	487	38	4	
13	0	0	0	0	515	496	0	484	39	4	
14	0	0	0	0	504	494	0	486	39	4	
15	0	0	0	0	512	497	0	487	38	4	
0	0	0	0	0	499	503	0	484	38	4	
1	0	0	0	0	505	507	0	481	38	4	
2	0	0	0	0	512	508	0	478	39	4	
3	0	0	0	0	514	508	0	481	38	4	
4	0	0	0	0	501	505	0	484	38	4	
5	0	0	0	0	509	504	0	487	38	4	
6	0	0	0	0	510	503	0	487	38	4	
7	0	0	0	0	508	500	0	486	38	4	
8	0	0	0	0	503	493	0	484	38	4	
9	0	0	0	0	508	487	0	480	38	4	
10	0	0	0	0	501	484	0	480	38	4	
11	0	0	0	0	510	485	0	484	38	4	
12	0	0	0	0	513	487	0	483	38	4	
13	0	0	0	0	506	488	0	487	38	4	
14	0	0	0	0	505	491	0	495	38	4	
15	0	0	0	0	507	494	0	521	38	4	
0	0	0	0	0	503	499	0	529	38	4	
1	0	0	0	0	506	504	0	541	38	4	
2	0	0	0	0	505	508	0	558	38	4	
3	0	0	0	0	506	511	0	560	38	4	
4	0	0	0	0	510	509	0	589	38	4	
5	0	0	0	0	508	501	0	569	38	4	
6	0	0	0	0	511	489	0	571	38	4	
7	0	0	0	0	506	479	0	575	38	4	
8	0	0	0	0	513	475	0	566	38	4	
9	0	0	0	0	516	476	0	574	38	4	
10	0	0	0	0	511	483	0	567	38	4	
11	0	0	0	0	505	487	0	560	38	4	
12	0	0	0	0	503	489	0	546	38	4	
13	0	0	0	0	506	488	0	532	38	4	
14	0	0	0	0	507	487	0	517	38	4	
15	0	0	0	0	512	487	0	508	38	4	
0	0	0	0	0	507	490	0	497	38	4	
1	0	0	0	0	500	494	0	488	38	4	
2	0	0	0	0	504	495	0	487	38	4	
3	0	0	0	0	500	494	0	485	38	4	
4	0	0	0	0	506	494	0	484	38	4	
5	0	0	0	0	514	495	0	484	38	4	
6	0	0	0	0	507	493	0	485	38	4	
7	0	0	0	0	516	495	0	487	38	4	
8	0	0	0	0	511	496	0	480	38	4	
9	0	0	0	0	509	495	0	477	38	4	
10	0	0	0	0	505	492	0	477	38	4	
11	0	0	0	0	505	488	0	482	38	4	
12	0	0	0	0	505	485	0	480	38	4	
13	0	0	0	0	511	482	0	482	38	4	
14	0	0	0	0	504	480	0	483	38	4	
15	0	0	0	0	505	476	0	481	38	4	
0	0	0	0	0	510	468	0	481	39	4	
1	0	0	0	0	510	460	0	478	38	4	
2	0	0	0	0	507	460	0	480	39	4	
3	0	0	0	0	499	470	0	483	38	4	
4	0	0	0	0	511	479	0	484	38	4	
5	0	0	0	0	508	483	0	487	39	4	
6	0	0	0	0	510	481	0	489	38	4	
7	0	0	0	0	510	483	0	492	38	4	
8	0	0	0	0	500	488	0	513	39	4	
9	0	0	0	0	510	495	0	528	38	4	
10	0	0	0	0	511	501	0	539	39	4	
11	0	0	0	0	500	501	0	563	38	4	
12	0	0	0	0	507	498	0	565	38	4	
13	0	0	0	0	508	501	0	575	38	4	
14	0	0	0	0	510	503	0	575	38	4	
15	0	0	0	0	513	502	0	572	39	4	
0	0	0	0	0	510	497	0	580	39	4	
1	0	0	0	0	512	490	0	572	39	4	
2	0	0	0	0	501	486	0	578	39	4	
3	0	0	0	0	508	484	0	573	38	4	
4	0	0	0	0	510	486	0	567	39	4	
5	0	0	0	0	513	486	0	560	39	4	
6	0	0	0	0	508	485	0	572	39	4	
7	0	0	0	0	512	483	0	566	39	4	
8	0	0	0	0	505	479	0	558	39	4	
9	0	0	0	0	513	475	0	545	39	4	
10	0	0	0	0	508	477	0	532	39	4	
11	0	0	0	0	504	486	0	516	39	4	
12	0	0	0	0	508	492	0	506	38	4	
13	0	0	0	0	506	494	0	498	39	4	
14	0	0	0	0	513	492	0	494	39	4	
15	0	0	0	0	502	492	0	493	39	4	
0	0	0	0	0	499	497	0	487	39	4	
1	0	0	0	0	507	505	0	481	39	4	
2	0	0	0	0	508	513	0	479	39	4	
3	0	0	0	0	510	526	0	480	39	4	
4	0	0	0	0	507	539	0	483	39	4	
5	0	0	0	0	501	551	0	483	39	4	
6	0	0	0	0	506	562	0	483	39	4	
7	0	0	0	0	512	571	0	480	39	4	
8	0	0	0	0	505	578	0	477	39	4	
9	0	0	0	0	508	590	0	471	39	4	
10	0	0	0	0	512	604	0	472	39	4	
11	0	0	0	0	508	619	0	474	39	4	
12	0	0	0	0	504	635	0	482	38	4	
13	0	0	0	0	512	647	0	477	39	4	
14	0	0	0	0	500	653	0	480	39	4	
15	0	0	0	0	504	654	0	482	38	4	
0	0	0	0	0	508	660	0	482	38	4	
1	0	0	0	0	507	663	0	478	39	4	
2	0	0	0	0	513	656	0	477	39	4	
3	0	0	0	0	507	645	0	478	39	4	
4	0	0	0	0	504	634	0	480	39	4	
5	0	0	0	0	512	624	0	483	38	4	
6	0	0	0	0	506	616	0	483	38	4	
7	0	0	0	0	510	611	0	484	39	4	
8	0	0	0	0	510	605	0	479	39	4	
9	0	0	0	0	507	597	0	478	38	4	
10	0	0	0	0	511	587	0	474	39	4	
11	0	0	0	0	504	572	0	476	38	4	
12	0	0	0	0	500	553	0	479	39	4	
13	0	0	0	0	510	532	0	497	38	4	
14	0	0	0	0	505	513	0	483	38	4	
15	0	0	0	0	508	496	0	484	38	4	
0	0	0	0	0	508	479	0	482	38	4	
1	0	0	0	0	506	467	0	480	38	4	
2	0	0	0	0	504	455	0	482	39	4	
3	0	0	0	0	508	438	0	483	38	4	
4	0	0	0	0	510	419	0	506	38	4	
5	0	0	0	0	511	403	0	527	38	4	
6	0	0	0	0	510	394	0	539	38	4	
7	0	0	0	0	510	389	0	555	38	4	
8	0	0	0	0	505	387	0	547	38	4	
9	0	0	0	0	510	387	0	555	38	4	
10	0	0	0	0	510	389	0	559	38	4	
11	0	0	0	0	512	391	0	560	38	4	
12	0	0	0	0	505	395	0	568	38	4	
13	0	0	0	0	504	397	0	559	38	4	
14	0	0	0	0	505	396	0	564	38	4	
15	0	0	0	0	506	395	0	561	38	4	
0	0	0	0	0	507	400	0	551	38	4	
1	0	0	0	0	507	409	0	559	38	4	
2	0	0	0	0	505	417	0	553	39	4	
3	0	0	0	0	507	423	0	561	38	4	
4	0	0	0	0	509	431	0	559	38	4	
5	0	0	0	0	500	439	0	553	38	4	
6	0	0	0	0	511	448	0	549	38	4	
7	0	0	0	0	510	458	0	558	38	4	
8	0	0	0	0	503	469	0	551	38	4	
9	0	0	0	0	511	481	0	544	38	4	
10	0	0	0	0	506	490	0	533	39	4	
11	0	0	0	0	504	495	0	519	38	4	
12	0	0	0	0	502	495	0	508	38	4	
13	0	0	0	0	509	495	0	496	38	4	
14	0	0	0	0	509	487	0	490	38	4	
15	0	0	0	0	509	478	0	486	39	4	
0	0	0	0	0	511	469	0	485	38	4	
1	0	0	0	0	507	468	0	481	38	4	
2	0	0	0	0	507	470	0	479	38	4	
3	0	0	0	0	513	472	0	479	38	4	
4	0	0	0	0	504	477	0	479	38	4	
5	0	0	0	0	507	481	0	482	38	4	
6	0	0	0	0	509	483	0	481	38	4	
7	0	0	0	0	505	487	0	482	38	4	
8	0	0	0	0	508	492	0	480	38	4	
9	0	0	0	0	501	496	0	476	38	4	
10	0	0	0	0	504	499	0	480	39	4	
11	0	0	0	0	502	506	0	479	38	4	
12	0	0	0	0	510	515	0	480	38	4	
13	0	0	0	0	509	517	0	481	38	4	
14	0	0	0	0	511	514	0	484	39	4	
15	0	0	0	0	500	512	0	485	38	4	
0	0	0	0	0	508	514	0	483	38	4	
1	0	0	0	0	508	514	0	480	38	4	
2	0	0	0	0	523	517	0	480	38	4	
3	0	0	0	0	513	516	0	482	38	4	
4	0	0	0	0	514	513	0	485	38	4	
5	0	0	0	0	509	512	0	487	38	4	
6	0	0	0	0	501	513	0	491	38	4	
7	0	0	0	0	511	517	0	490	39	4	
8	0	0	0	0	512	519	0	492	38	4	
9	0	0	0	0	502	521	0	484	38	4	
10	0	0	0	0	508	511	0	485	39	4	
11	0	0	0	0	506	505	0	486	38	4	
12	0	0	0	0	505	512	0	487	38	4	
13	0	0	0	0	502	522	0	489	39	4	
14	0	0	0	0	499	525	0	492	39	4	
15	0	0	0	0	507	519	0	492	38	4	
0	0	0	0	0	512	514	0	489	38	4	
1	0	0	0	0	499	509	0	507	38	4	
2	0	0	0	0	506	505	0	529	39	4	
3	0	0	0	0	511	501	0	541	38	4	
4	0	0	0	0	518	498	0	562	38	4	
5	0	0	0	0	510	496	0	563	39	4	
6	0	0	0	0	503	490	0	569	39	4	
7	0	0	0	0	507	491	0	574	38	4	
8	0	0	0	0	510	494	0	566	38	4	
9	0	0	0	0	510	501	0	575	39	4	
10	0	0	0	0	512	507	0	571	39	4	
11	0	0	0	0	497	508	0	571	39	4	
12	0	0	0	0	501	508	0	577	39	4	
13	0	0	0	0	505	511	0	572	39	4	
14	0	0	0	0	510	513	0	579	38	4	
15	0	0	0	0	512	515	0	569	38	4	
0	0	0	0	0	512	519	0	564	39	4	
1	0	0	0	0	508	522	0	565	39	4	
2	0	0	0	0	511	523	0	557	39	4	
3	0	0	0	0	502	524	0	550	39	4	
4	0	0	0	0	511	524	0	537	39	4	
5	0	0	0	0	512	524	0	521	38	4	
6	0	0	0	0	505	525	0	510	39	4	
7	0	0	0	0	506	524	0	503	39	4	
8	0	0	0	0	511	522	0	499	39	4	
9	0	0	0	0	503	522	0	494	39	4	
10	0	0	0	0	506	526	0	491	39	4	
11	0	0	0	0	509	531	0	492	39	4	
12	0	0	0	0	509	532	0	492	39	4	
13	0	0	0	0	507	531	0	494	39	4	
14	0	0	0	0	512	531	0	493	39	4	
15	0	0	0	0	508	530	0	491	39	4	
0	0	0	0	0	503	533	0	489	39	4	
1	0	0	0	0	508	535	0	487	39	4	
2	0	0	0	0	502	538	0	490	39	4	
3	0	0	0	0	508	540	0	491	39	4	
4	0	0	0	0	509	539	0	493	39	4	
5	0	0	0	0	505	536	0	495	39	4	
6	0	0	0	0	513	534	0	497	39	4	
7	0	0	0	0	503	533	0	500	39	4	
8	0	0	0	0	504	535	0	494	39	4	
9	0	0	0	0	509	541	0	491	39	4	
10	0	0	0	0	508	547	0	492	39	4	
11	0	0	0	0	516	552	0	493	39	4	
12	0	0	0	0	512	554	0	495	39	4	
13	0	0	0	0	512	555	0	493	39	4	
14	0	0	0	0	508	556	0	493	39	4	
15	0	0	0	0	501	556	0	503	39	4	
0	0	0	0	0	506	555	0	526	39	4	
1	0	0	0	0	501	555	0	532	39	4	
2	0	0	0	0	511	556	0	552	39	4	
3	0	0	0	0	511	556	0	560	38	4	
4	0	0	0	0	501	556	0	565	39	4	
5	0	0	0	0	508	558	0	580	38	4	
6	0	0	0	0	508	560	0	576	39	4	
7	0	0	0	0	506	561	0	582	39	4	
8	0	0	0	0	509	560	0	576	38	4	
9	0	0	0	0	508	563	0	568	39	4	
10	0	0	0	0	507	564	0	574	39	4	
11	0	0	0	0	504	560	0	568	38	4	
12	0	0	0	0	512	557	0	561	38	4	
13	0	0	0	0	509	563	0	548	39	4	
14	0	0	0	0	509	572	0	533	39	4	
15	0	0	0	0	506	583	0	522	38	4	
0	0	0	0	0	505	590	0	514	38	4	
1	0	0	0	0	512	587	0	504	38	4	
2	0	0	0	0	505	581	0	496	39	4	
3	0	0	0	0	506	579	0	495	38	4	
4	0	0	0	0	507	582	0	494	38	4	
5	0	0	0	0	509	587	0	495	38	4	
6	0	0	0	0	513	592	0	493	38	4	
7	0	0	0	0	503	593	0	490	38	4	
8	0	0	0	0	506	592	0	485	38	4	
9	0	0	0	0	506	594	0	482	38	4	
10	0	0	0	0	510	597	0	483	38	4	
11	0	0	0	0	509	598	0	482	38	4	
12	0	0	0	0	511	599	0	486	38	4	
13	0	0	0	0	506	596	0	490	38	4	
14	0	0	0	0	510	591	0	492	38	4	
15	0	0	0	0	511	588	0	494	38	4	
0	0	0	0	0	504	590	0	491	38	4	
1	0	0	0	0	506	586	0	488	38	4	
2	0	0	0	0	507	580	0	490	38	4	
3	0	0	0	0	507	574	0	493	38	4	
4	0	0	0	0	508	572	0	494	38	4	
5	0	0	0	0	510	575	0	494	38	4	
6	0	0	0	0	510	574	0	494	38	4	
7	0	0	0	0	502	571	0	493	38	4	
8	0	0	0	0	505	570	0	499	38	4	
9	0	0	0	0	515	572	0	521	38	4	
10	0	0	0	0	508	572	0	536	38	4	
11	0	0	0	0	503	567	0	552	38	4	
12	0	0	0	0	512	563	0	577	38	4	
13	0	0	0	0	510	559	0	566	38	4	
14	0	0	0	0	503	558	0	579	38	4	
15	0	0	0	0	511	555	0	576	38	4	
0	0	0	0	0	505	548	0	576	38	4	
1	0	0	0	0	503	545	0	579	38	4	
2	0	0	0	0	503	547	0	568	38	4	
3	0	0	0	0	515	548	0	575	38	4	
4	0	0	0	0	511	548	0	570	38	4	
5	0	0	0	0	507	545	0	562	38	4	
6	0	0	0	0	512	541	0	558	38	4	
7	0	0	0	0	505	540	0	567	38	4	
8	0	0	0	0	508	537	0	560	38	4	
9	0	0	0	0	498	534	0	552	38	4	
10	0	0	0	0	510	532	0	542	39	4	
11	0	0	0	0	513	530	0	521	38	4	
12	0	0	0	0	510	524	0	510	39	4	
13	0	0	0	0	508	516	0	501	39	4	
14	0	0	0	0	506	508	0	493	38	4	
15	0	0	0	0	510	498	0	503	39	4	
0	0	0	0	0	509	494	0	482	39	4	
1	0	0	0	0	501	494	0	478	39	4	
2	0	0	0	0	506	496	0	476	39	4	
3	0	0	0	0	502	498	0	475	39	4	
4	0	0	0	0	508	500	0	480	39	4	
5	0	0	0	0	507	500	0	476	39	4	
6	0	0	0	0	507	501	0	477	39	4	
7	0	0	0	0	508	503	0	477	39	4	
8	0	0	0	0	512	503	0	472	39	4	
9	0	0	0	0	505	501	0	472	38	4	
10	0	0	0	0	510	495	0	471	39	4	
11	0	0	0	0	502	482	0	471	39	4	
12	0	0	0	0	508	472	0	473	38	4	
13	0	0	0	0	512	470	0	488	39	4	
14	0	0	0	0	512	468	0	473	39	4	
15	0	0	0	0	509	467	0	474	39	4	
0	0	0	0	0	506	467	0	472	38	4	
1	0	0	0	0	503	470	0	470	39	4	
2	0	0	0	0	505	474	0	469	39	4	
3	0	0	0	0	506	476	0	469	39	4	
4	0	0	0	0	513	473	0	472	39	4	
5	0	0	0	0	511	472	0	480	39	4	
6	0	0	0	0	508	470	0	508	39	4	
7	0	0	0	0	507	470	0	519	38	4	
8	0	0	0	0	509	470	0	529	38	4	
9	0	0	0	0	499	472	0	542	39	4	
10	0	0	0	0	511	476	0	542	39	4	
11	0	0	0	0	499	479	0	555	38	4	
12	0	0	0	0	511	476	0	561	38	4	
13	0	0	0	0	504	469	0	552	39	4	
14	0	0	0	0	505	465	0	556	39	4	
15	0	0	0	0	511	463	0	550	39	4	
0	0	0	0	0	508	459	0	556	39	4	
1	0	0	0	0	499	456	0	551	39	4	
2	0	0	0	0	515	453	0	542	39	4	
3	0	0	0	0	515	453	0	529	39	4	
4	0	0	0	0	507	459	0	515	39	4	
5	0	0	0	0	503	470	0	502	39	4	
6	0	0	0	0	506	476	0	490	39	4	
7	0	0	0	0	509	475	0	484	39	4	
8	0	0	0	0	508	470	0	478	39	4	
9	0	0	0	0	507	468	0	471	39	4	
10	0	0	0	0	514	467	0	469	39	4	
11	0	0	0	0	508	467	0	469	39	4	
12	0	0	0	0	508	468	0	468	38	4	
13	0	0	0	0	504	470	0	470	39	4	
14	0	0	0	0	506	470	0	472	39	4	
15	0	0	0	0	509	471	0	471	38	4	
0	0	0	0	0	507	472	0	467	38	4	
1	0	0	0	0	508	471	0	465	38	4	
2	0	0	0	0	511	475	0	467	39	4	
3	0	0	0	0	504	481	0	469	39	4	
4	0	0	0	0	503	481	0	471	38	4	
5	0	0	0	0	506	475	0	473	38	4	
6	0	0	0	0	510	468	0	472	38	4	
7	0	0	0	0	505	468	0	473	39	4	
8	0	0	0	0	511	472	0	470	38	4	
9	0	0	0	0	507	477	0	466	38	4	
10	0	0	0	0	511	482	0	467	39	4	
11	0	0	0	0	502	483	0	465	38	4	
12	0	0	0	0	509	483	0	470	38	4	
13	0	0	0	0	504	486	0	473	38	4	
14	0	0	0	0	511	490	0	479	39	4	
15	0	0	0	0	504	491	0	502	38	4	
0	0	0	0	0	505	483	0	509	38	4	
1	0	0	0	0	512	474	0	518	38	4	
2	0	0	0	0	508	468	0	539	39	4	
3	0	0	0	0	504	466	0	552	39	4	
4	0	0	0	0	506	466	0	554	38	4	
5	0	0	0	0	510	467	0	557	38	4	
6	0	0	0	0	508	472	0	555	38	4	
7	0	0	0	0	513	471	0	568	38	4	
8	0	0	0	0	505	467	0	553	38	4	
9	0	0	0	0	505	466	0	558	38	4	
10	0	0	0	0	513	467	0	561	39	4	
11	0	0	0	0	500	470	0	547	39	4	
12	0	0	0	0	515	473	0	528	38	4	
13	0	0	0	0	513	476	0	512	38	4	
14	0	0	0	0	505	476	0	499	38	4	
15	0	0	0	0	507	471	0	507	38	4	
0	0	0	0	0	503	464	0	522	38	4	
1	0	0	0	0	506	457	0	521	38	4	
2	0	0	0	0	505	455	0	539	38	4	
3	0	0	0	0	506	459	0	540	38	4	
4	0	0	0	0	512	462	0	538	38	4	
5	0	0	0	0	507	464	0	528	38	4	
6	0	0	0	0	507	468	0	514	38	4	
7	0	0	0	0	506	474	0	503	38	4	
8	0	0	0	0	510	476	0	494	38	4	
9	0	0	0	0	510	476	0	488	38	4	
10	0	0	0	0	499	476	0	479	38	4	
11	0	0	0	0	503	474	0	475	38	4	
12	0	0	0	0	502	470	0	473	38	4	
13	0	0	0	0	513	467	0	472	38	4	
14	0	0	0	0	507	465	0	471	38	4	
15	0	0	0	0	510	464	0	469	38	4	
0	0	0	0	0	504	469	0	466	38	4	
1	0	0	0	0	514	473	0	465	38	4	
2	0	0	0	0	508	472	0	472	38	4	
3	0	0	0	0	505	465	0	468	38	4	
4	0	0	0	0	508	459	0	473	38	4	
5	0	0	0	0	509	454	0	475	38	4	
6	0	0	0	0	507	452	0	477	39	4	
7	0	0	0	0	510	454	0	478	38	4	
8	0	0	0	0	511	453	0	472	38	4	
9	0	0	0	0	512	452	0	470	38	4	
10	0	0	0	0	502	453	0	470	39	4	
11	0	0	0	0	504	454	0	474	38	4	
12	0	0	0	0	505	457	0	479	38	4	
13	0	0	0	0	501	464	0	480	38	4	
14	0	0	0	0	509	471	0	483	38	4	
15	0	0	0	0	504	477	0	485	38	4	
0	0	0	0	0	498	479	0	485	38	4	
1	0	0	0	0	506	482	0	508	39	4	
2	0	0	0	0	512	481	0	527	39	4	
3	0	0	0	0	511	477	0	541	39	4	
4	0	0	0	0	506	474	0	560	38	4	
5	0	0	0	0	504	472	0	560	38	4	
6	0	0	0	0	512	468	0	571	39	4	
7	0	0	0	0	516	466	0	568	39	4	
8	0	0	0	0	508	468	0	564	39	4	
9	0	0	0	0	502	472	0	573	39	4	
10	0	0	0	0	503	477	0	567	39	4	
11	0	0	0	0	510	481	0	582	39	4	
12	0	0	0	0	507	488	0	572	38	4	
13	0	0	0	0	511	496	0	567	39	4	
14	0	0	0	0	512	498	0	562	39	4	
15	0	0	0	0	505	494	0	573	39	4	
0	0	0	0	0	505	488	0	570	38	4	
1	0	0	0	0	509	481	0	562	38	4	
2	0	0	0	0	501	479	0	550	39	4	
3	0	0	0	0	506	479	0	537	39	4	
4	0	0	0	0	509	480	0	526	38	4	
5	0	0	0	0	507	479	0	518	38	4	
6	0	0	0	0	505	479	0	507	38	4	
7	0	0	0	0	509	486	0	502	39	4	
8	0	0	0	0	508	487	0	499	39	4	
9	0	0	0	0	508	480	0	493	39	4	
10	0	0	0	0	514	472	0	499	39	4	
11	0	0	0	0	507	465	0	490	39	4	
12	0	0	0	0	508	460	0	491	39	4	
13	0	0	0	0	507	458	0	493	39	4	
14	0	0	0	0	512	463	0	494	38	4	
15	0	0	0	0	512	472	0	494	38	4	
0	0	0	0	0	504	483	0	487	38	4	
1	0	0	0	0	504	490	0	486	38	4	
2	0	0	0	0	499	497	0	487	38	4	
3	0	0	0	0	509	503	0	490	38	4	
4	0	0	0	0	507	508	0	493	38	4	
5	0	0	0	0	508	510	0	495	38	4	
6	0	0	0	0	504	508	0	497	39	4	
7	0	0	0	0	507	505	0	499	38	4	
8	0	0	0	0	512	510	0	497	38	4	
9	0	0	0	0	511	514	0	493	39	4	
10	0	0	0	0	505	513	0	493	39	4	
11	0	0	0	0	502	503	0	494	39	4	
12	0	0	0	0	506	492	0	499	39	4	
13	0	0	0	0	499	483	0	501	38	4	
14	0	0	0	0	504	476	0	502	39	4	
15	0	0	0	0	508	470	0	501	38	4	
0	0	0	0	0	512	471	0	497	39	4	
1	0	0	0	0	506	477	0	495	38	4	
2	0	0	0	0	509	486	0	495	39	4	
3	0	0	0	0	515	495	0	499	39	4	
4	0	0	0	0	506	497	0	499	39	4	
5	0	0	0	0	512	494	0	501	38	4	
6	0	0	0	0	514	494	0	504	38	4	
7	0	0	0	0	503	498	0	505	38	4	
8	0	0	0	0	514	500	0	503	38	4	
9	0	0	0	0	509	501	0	497	38	4	
10	0	0	0	0	500	503	0	498	39	4	
11	0	0	0	0	504	504	0	500	38	4	
12	0	0	0	0	503	504	0	502	38	4	
13	0	0	0	0	509	509	0	503	38	4	
14	0	0	0	0	503	514	0	503	38	4	
15	0	0	0	0	509	517	0	501	39	4	
0	0	0	0	0	511	519	0	498	38	4	
1	0	0	0	0	507	519	0	494	38	4	
2	0	0	0	0	512	519	0	492	38	4	
3	0	0	0	0	512	521	0	494	38	4	
4	0	0	0	0	511	525	0	496	38	4	
5	0	0	0	0	512	527	0	498	38	4	
6	0	0	0	0	504	526	0	501	38	4	
7	0	0	0	0	502	514	0	501	39	4	
8	0	0	0	0	507	496	0	493	38	4	
9	0	0	0	0	502	487	0	490	39	4	
10	0	0	0	0	508	487	0	491	39	4	
11	0	0	0	0	508	488	0	495	38	4	
12	0	0	0	0	503	490	0	520	39	4	
13	0	0	0	0	514	487	0	540	38	4	
14	0	0	0	0	501	484	0	554	39	4	
15	0	0	0	0	501	486	0	570	38	4	
0	0	0	0	0	504	486	0	565	38	4	
1	0	0	0	0	502	486	0	574	38	4	
2	0	0	0	0	509	487	0	576	39	4	
3	0	0	0	0	511	487	0	576	39	4	
4	0	0	0	0	513	487	0	585	39	4	
5	0	0	0	0	511	487	0	581	39	4	
6	0	0	0	0	509	487	0	582	38	4	
7	0	0	0	0	506	484	0	580	38	4	
8	0	0	0	0	508	482	0	575	38	4	
9	0	0	0	0	510	478	0	580	39	4	
10	0	0	0	0	507	478	0	571	39	4	
11	0	0	0	0	514	482	0	575	38	4	
12	0	0	0	0	506	487	0	574	38	4	
13	0	0	0	0	504	488	0	571	38	4	
14	0	0	0	0	507	487	0	580	38	4	
15	0	0	0	0	509	486	0	573	39	4	
0	0	0	0	0	510	479	0	573	38	4	
1	0	0	0	0	514	476	0	569	38	4	
2	0	0	0	0	512	477	0	566	39	4	
3	0	0	0	0	504	482	0	575	38	4	
4	0	0	0	0	508	483	0	566	38	4	
5	0	0	0	0	502	486	0	560	38	4	
6	0	0	0	0	510	486	0	561	39	4	
7	0	0	0	0	506	487	0	564	38	4	
8	0	0	0	0	502	486	0	557	38	4	
9	0	0	0	0	505	487	0	547	38	4	
10	0	0	0	0	510	487	0	532	38	4	
11	0	0	0	0	508	484	0	515	38	4	
12	0	0	0	0	509	480	0	504	38	4	
13	0	0	0	0	508	483	0	496	39	4	
14	0	0	0	0	506	489	0	489	38	4	
15	0	0	0	0	505	486	0	484	38	4	
0	0	0	0	0	504	483	0	476	38	4	
1	0	0	0	0	508	483	0	487	38	4	
2	0	0	0	0	504	484	0	475	38	4	
3	0	0	0	0	508	480	0	503	39	4	
4	0	0	0	0	514	482	0	520	38	4	
5	0	0	0	0	512	483	0	538	38	4	
6	0	0	0	0	505	482	0	556	38	4	
7	0	0	0	0	512	482	0	552	38	4	
8	0	0	0	0	507	482	0	547	38	4	
9	0	0	0	0	507	485	0	533	39	4	
10	0	0	0	0	507	490	0	518	39	4	
11	0	0	0	0	508	491	0	507	38	4	
12	0	0	0	0	510	490	0	496	39	4	
13	0	0	0	0	501	489	0	489	38	4	
14	0	0	0	0	511	491	0	485	39	4	
15	0	0	0	0	507	494	0	485	38	4	
0	0	0	0	0	510	493	0	476	38	4	
1	0	0	0	0	508	485	0	471	38	4	
2	0	0	0	0	496	478	0	470	39	4	
3	0	0	0	0	505	476	0	471	38	4	
4	0	0	0	0	508	472	0	474	38	4	
5	0	0	0	0	508	470	0	474	39	4	
6	0	0	0	0	512	466	0	477	38	4	
7	0	0	0	0	509	470	0	479	38	4	
8	0	0	0	0	506	478	0	476	38	4	
9	0	0	0	0	512	487	0	474	38	4	
10	0	0	0	0	501	491	0	475	39	4	
11	0	0	0	0	501	492	0	477	38	4	
12	0	0	0	0	505	500	0	479	38	4	
13	0	0	0	0	512	513	0	488	38	4	
14	0	0	0	0	509	524	0	479	38	4	
15	0	0	0	0	504	531	0	480	38	4	
0	0	0	0	0	507	540	0	477	38	4	
1	0	0	0	0	508	553	0	472	39	4	
2	0	0	0	0	510	571	0	475	38	4	
3	0	0	0	0	507	583	0	474	38	4	
4	0	0	0	0	504	589	0	489	38	4	
5	0	0	0	0	505	597	0	516	39	4	
6	0	0	0	0	503	608	0	525	39	4	
7	0	0	0	0	504	624	0	545	38	4	
8	0	0	0	0	509	646	0	551	38	4	
9	0	0	0	0	507	664	0	553	38	4	
10	0	0	0	0	505	681	0	563	39	4	
11	0	0	0	0	506	691	0	557	38	4	
12	0	0	0	0	515	704	0	564	38	4	
13	0	0	0	0	512	716	0	562	38	4	
14	0	0	0	0	508	719	0	559	38	4	
15	0	0	0	0	507	719	0	566	39	4	
0	0	0	0	0	508	717	0	554	39	4	
1	0	0	0	0	510	711	0	534	39	4	
2	0	0	0	0	505	705	0	531	39	4	
3	0	0	0	0	508	693	0	540	39	4	
4	0	0	0	0	503	675	0	539	39	4	
5	0	0	0	0	515	657	0	538	39	4	
6	0	0	0	0	510	635	0	545	39	4	
7	0	0	0	0	506	616	0	544	39	4	
8	0	0	0	0	507	595	0	538	39	4	
9	0	0	0	0	503	573	0	529	39	4	
10	0	0	0	0	501	551	0	525	39	4	
11	0	0	0	0	509	529	0	504	39	4	
12	0	0	0	0	508	509	0	494	39	4	
13	0	0	0	0	512	491	0	486	39	4	
14	0	0	0	0	509	475	0	482	39	4	
15	0	0	0	0	507	463	0	479	39	4	
0	0	0	0	0	513	448	0	470	39	4	
1	0	0	0	0	506	427	0	465	39	4	
2	0	0	0	0	515	404	0	465	39	4	
3	0	0	0	0	513	383	0	467	39	4	
4	0	0	0	0	510	371	0	478	39	4	
5	0	0	0	0	499	360	0	472	38	4	
6	0	0	0	0	501	351	0	472	38	4	
7	0	0	0	0	503	346	0	472	39	4	
8	0	0	0	0	509	347	0	469	38	4	
9	0	0	0	0	506	355	0	470	39	4	
10	0	0	0	0	506	364	0	465	39	4	
11	0	0	0	0	504	374	0	467	39	4	
12	0	0	0	0	510	385	0	472	39	4	
13	0	0	0	0	507	393	0	475	38	4	
14	0	0	0	0	505	401	0	479	38	4	
15	0	0	0	0	511	407	0	478	38	4	
0	0	0	0	0	507	412	0	472	38	4	
1	0	0	0	0	505	413	0	470	39	4	
2	0	0	0	0	505	415	0	472	38	4	
3	0	0	0	0	510	422	0	477	38	4	
4	0	0	0	0	512	431	0	482	38	4	
5	0	0	0	0	513	439	0	499	38	4	
6	0	0	0	0	502	444	0	523	38	4	
7	0	0	0	0	506	443	0	534	38	4	
8	0	0	0	0	503	446	0	553	38	4	
9	0	0	0	0	513	454	0	554	38	4	
10	0	0	0	0	506	465	0	557	39	4	
11	0	0	0	0	508	475	0	566	38	4	
12	0	0	0	0	508	485	0	560	38	4	
13	0	0	0	0	509	494	0	572	38	4	
14	0	0	0	0	506	499	0	566	38	4	
15	0	0	0	0	510	502	0	566	38	4	
0	0	0	0	0	502	504	0	566	38	4	
1	0	0	0	0	506	502	0	554	38	4	
2	0	0	0	0	508	499	0	545	39	4	
3	0	0	0	0	514	493	0	529	38	4	
4	0	0	0	0	516	488	0	515	38	4	
5	0	0	0	0	510	487	0	505	39	4	
6	0	0	0	0	509	487	0	497	38	4	
7	0	0	0	0	503	486	0	492	38	4	
8	0	0	0	0	506	486	0	487	38	4	
9	0	0	0	0	505	488	0	485	38	4	
10	0	0	0	0	508	492	0	484	39	4	
11	0	0	0	0	498	495	0	483	38	4	
12	0	0	0	0	504	493	0	485	38	4	
13	0	0	0	0	517	492	0	484	38	4	
14	0	0	0	0	508	489	0	483	38	4	
15	0	0	0	0	502	488	0	482	38	4	
0	0	0	0	0	510	492	0	485	38	4	
1	0	0	0	0	512	494	0	475	38	4	
2	0	0	0	0	511	491	0	472	38	4	
3	0	0	0	0	510	487	0	473	38	4	
4	0	0	0	0	509	487	0	476	38	4	
5	0	0	0	0	511	490	0	478	38	4	
6	0	0	0	0	503	490	0	480	38	4	
7	0	0	0	0	508	487	0	478	38	4	
8	0	0	0	0	509	485	0	475	38	4	
9	0	0	0	0	503	488	0	476	38	4	
10	0	0	0	0	511	489	0	473	38	4	
11	0	0	0	0	513	487	0	477	38	4	
12	0	0	0	0	509	487	0	480	38	4	
13	0	0	0	0	507	491	0	484	38	4	
14	0	0	0	0	505	491	0	497	38	4	
15	0	0	0	0	500	489	0	520	38	4	
0	0	0	0	0	509	491	0	528	38	4	
1	0	0	0	0	506	491	0	546	38	4	
2	0	0	0	0	514	489	0	556	38	4	
3	0	0	0	0	509	492	0	557	38	4	
4	0	0	0	0	506	499	0	570	38	4	
5	0	0	0	0	503	496	0	564	38	4	
6	0	0	0	0	505	488	0	572	38	4	
7	0	0	0	0	513	486	0	588	38	4	
8	0	0	0	0	509	492	0	564	38	4	
9	0	0	0	0	502	503	0	570	38	4	
10	0	0	0	0	504	508	0	563	38	4	
11	0	0	0	0	515	511	0	558	38	4	
12	0	0	0	0	504	512	0	545	38	4	
13	0	0	0	0	502	507	0	530	38	4	
14	0	0	0	0	501	503	0	519	38	4	
15	0	0	0	0	512	505	0	509	38	4	
0	0	0	0	0	508	513	0	502	38	4	
1	0	0	0	0	508	523	0	496	38	4	
2	0	0	0	0	508	530	0	493	38	4	
3	0	0	0	0	508	532	0	492	38	4	
4	0	0	0	0	508	536	0	492	38	4	
5	0	0	0	0	507	536	0	492	38	4	
6	0	0	0	0	503	535	0	490	38	4	
7	0	0	0	0	507	534	0	488	38	4	
8	0	0	0	0	510	530	0	486	38	4	
9	0	0	0	0	516	527	0	484	38	4	
10	0	0	0	0	511	530	0	507	38	4	
11	0	0	0	0	511	531	0	537	38	4	
12	0	0	0	0	509	533	0	537	38	4	
13	0	0	0	0	506	540	0	559	38	4	
14	0	0	0	0	504	545	0	561	39	4	
15	0	0	0	0	507	547	0	572	38	4	
0	0	0	0	0	505	548	0	572	38	4	
1	0	0	0	0	504	547	0	563	39	4	
2	0	0	0	0	501	544	0	552	39	4	
3	0	0	0	0	500	543	0	538	39	4	
4	0	0	0	0	511	536	0	537	39	4	
5	0	0	0	0	505	528	0	512	39	4	
6	0	0	0	0	504	532	0	504	39	4	
7	0	0	0	0	505	532	0	501	39	4	
8	0	0	0	0	504	529	0	499	39	4	
9	0	0	0	0	512	537	0	495	39	4	
10	0	0	0	0	508	544	0	490	39	4	
11	0	0	0	0	511	546	0	488	39	4	
12	0	0	0	0	510	553	0	489	39	4	
13	0	0	0	0	508	560	0	487	39	4	
14	0	0	0	0	508	565	0	489	39	4	
15	0	0	0	0	503	561	0	483	39	4	
0	0	0	0	0	508	563	0	480	39	4	
1	0	0	0	0	506	565	0	476	39	4	
2	0	0	0	0	502	560	0	478	39	4	
3	0	0	0	0	512	559	0	481	39	4	
4	0	0	0	0	512	557	0	482	39	4	
5	0	0	0	0	513	553	0	486	39	4	
6	0	0	0	0	500	551	0	489	39	4	
7	0	0	0	0	508	555	0	490	39	4	
8	0	0	0	0	505	559	0	488	39	4	
9	0	0	0	0	505	558	0	486	39	4	
10	0	0	0	0	512	559	0	486	39	4	
11	0	0	0	0	513	564	0	487	39	4	
12	0	0	0	0	507	570	0	496	39	4	
13	0	0	0	0	508	575	0	488	39	4	
14	0	0	0	0	513	572	0	505	39	4	
15	0	0	0	0	505	579	0	524	39	4	
0	0	0	0	0	513	587	0	530	39	4	
1	0	0	0	0	508	584	0	553	39	4	
2	0	0	0	0	502	583	0	557	39	4	
3	0	0	0	0	511	588	0	566	39	4	
4	0	0	0	0	509	600	0	576	39	4	
5	0	0	0	0	498	607	0	575	39	4	
6	0	0	0	0	507	608	0	583	39	4	
7	0	0	0	0	507	619	0	575	39	4	
8	0	0	0	0	508	620	0	574	39	4	
9	0	0	0	0	511	616	0	574	39	4	
10	0	0	0	0	508	620	0	566	39	4	
11	0	0	0	0	507	623	0	556	39	4	
12	0	0	0	0	508	619	0	543	39	4	
13	0	0	0	0	502	615	0	528	39	4	
14	0	0	0	0	509	617	0	517	39	4	
15	0	0	0	0	500	609	0	506	39	4	
0	0	0	0	0	507	591	0	499	39	4	
1	0	0	0	0	508	586	0	491	39	4	
2	0	0	0	0	508	587	0	489	39	4	
3	0	0	0	0	509	586	0	486	39	4	
4	0	0	0	0	504	578	0	487	39	4	
5	0	0	0	0	504	580	0	489	39	4	
6	0	0	0	0	508	585	0	489	39	4	
7	0	0	0	0	510	583	0	487	39	4	
8	0	0	0	0	515	585	0	485	39	4	
9	0	0	0	0	515	584	0	483	39	4	
10	0	0	0	0	503	573	0	483	39	4	
11	0	0	0	0	503	565	0	485	39	4	
12	0	0	0	0	513	562	0	485	39	4	
13	0	0	0	0	506	571	0	487	39	4	
14	0	0	0	0	512	581	0	491	38	4	
15	0	0	0	0	512	582	0	489	38	4	
0	0	0	0	0	513	582	0	487	38	4	
1	0	0	0	0	512	575	0	483	38	4	
2	0	0	0	0	501	579	0	484	38	4	
3	0	0	0	0	501	579	0	486	38	4	
4	0	0	0	0	505	570	0	488	38	4	
5	0	0	0	0	501	558	0	490	38	4	
6	0	0	0	0	503	546	0	487	38	4	
7	0	0	0	0	510	540	0	486	38	4	
8	0	0	0	0	515	546	0	483	38	4	
9	0	0	0	0	507	554	0	478	38	4	
10	0	0	0	0	506	553	0	480	38	4	
11	0	0	0	0	512	545	0	478	38	4	
12	0	0	0	0	504	540	0	482	38	4	
13	0	0	0	0	506	543	0	485	38	4	
14	0	0	0	0	501	541	0	486	38	4	
15	0	0	0	0	501	540	0	483	38	4	
0	0	0	0	0	505	539	0	481	38	4	
1	0	0	0	0	513	523	0	474	38	4	
2	0	0	0	0	509	513	0	472	38	4	
3	0	0	0	0	503	508	0	473	38	4	
4	0	0	0	0	506	501	0	475	38	4	
5	0	0	0	0	508	496	0	475	38	4	
6	0	0	0	0	511	483	0	477	38	4	
7	0	0	0	0	503	475	0	478	38	4	
8	0	0	0	0	509	475	0	476	38	4	
9	0	0	0	0	511	485	0	472	39	4	
10	0	0	0	0	506	491	0	472	38	4	
11	0	0	0	0	504	494	0	476	38	4	
12	0	0	0	0	515	499	0	476	38	4	
13	0	0	0	0	509	499	0	480	38	4	
14	0	0	0	0	511	493	0	481	38	4	
15	0	0	0	0	513	482	0	478	38	4	
0	0	0	0	0	508	480	0	476	38	4	
1	0	0	0	0	506	476	0	468	38	4	
2	0	0	0	0	503	472	0	469	38	4	
3	0	0	0	0	507	470	0	471	38	4	
4	0	0	0	0	511	470	0	472	38	4	
5	0	0	0	0	509	470	0	491	38	4	
6	0	0	0	0	511	470	0	477	38	4	
7	0	0	0	0	505	471	0	476	38	4	
8	0	0	0	0	513	469	0	472	38	4	
9	0	0	0	0	510	463	0	471	38	4	
10	0	0	0	0	505	460	0	484	38	4	
11	0	0	0	0	502	458	0	516	38	4	
12	0	0	0	0	508	459	0	527	38	4	
13	0	0	0	0	505	460	0	547	38	4	
14	0	0	0	0	511	461	0	552	38	4	
15	0	0	0	0	505	463	0	549	38	4	
0	0	0	0	0	514	463	0	561	38	4	
1	0	0	0	0	507	463	0	553	38	4	
2	0	0	0	0	510	467	0	559	38	4	
3	0	0	0	0	503	470	0	557	38	4	
4	0	0	0	0	507	473	0	553	38	4	
5	0	0	0	0	509	475	0	562	38	4	
6	0	0	0	0	509	477	0	554	38	4	
7	0	0	0	0	509	479	0	558	38	4	
8	0	0	0	0	508	478	0	556	38	4	
9	0	0	0	0	508	479	0	565	38	4	
10	0	0	0	0	502	483	0	557	38	4	
11	0	0	0	0	504	487	0	549	38	4	
12	0	0	0	0	508	492	0	554	38	4	
13	0	0	0	0	505	497	0	557	38	4	
14	0	0	0	0	504	494	0	555	38	4	
15	0	0	0	0	503	483	0	560	38	4	
0	0	0	0	0	504	472	0	546	38	4	
1	0	0	0	0	508	467	0	549	38	4	
2	0	0	0	0	500	466	0	550	38	4	
3	0	0	0	0	507	468	0	559	38	4	
4	0	0	0	0	504	469	0	559	38	4	
5	0	0	0	0	511	469	0	552	38	4	
6	0	0	0	0	503	471	0	558	38	4	
7	0	0	0	0	512	474	0	553	38	4	
8	0	0	0	0	510	476	0	545	38	4	
9	0	0	0	0	507	476	0	531	38	4	
10	0	0	0	0	500	473	0	516	38	4	
11	0	0	0	0	505	469	0	504	38	4	
12	0	0	0	0	512	465	0	497	38	4	
13	0	0	0	0	518	463	0	487	38	4	
14	0	0	0	0	502	460	0	482	38	4	
15	0	0	0	0	502	456	0	478	38	4	
0	0	0	0	0	509	449	0	472	38	4	
1	0	0	0	0	511	448	0	471	38	4	
2	0	0	0	0	511	446	0	470	38	4	
3	0	0	0	0	510	448	0	471	38	4	
4	0	0	0	0	509	449	0	473	38	4	
5	0	0	0	0	507	451	0	473	38	4	
6	0	0	0	0	513	451	0	474	38	4	
7	0	0	0	0	507	454	0	469	38	4	
8	0	0	0	0	504	457	0	466	38	4	
9	0	0	0	0	512	460	0	462	38	4	
10	0	0	0	0	510	463	0	461	38	4	
11	0	0	0	0	509	464	0	465	38	4	
12	0	0	0	0	508	465	0	468	38	4	
13	0	0	0	0	508	463	0	472	38	4	
14	0	0	0	0	502	459	0	475	38	4	
15	0	0	0	0	510	456	0	476	38	4	
0	0	0	0	0	508	455	0	480	38	4	
1	0	0	0	0	509	457	0	472	38	4	
2	0	0	0	0	508	463	0	473	38	4	
3	0	0	0	0	508	472	0	475	38	4	
4	0	0	0	0	502	481	0	477	38	4	
5	0	0	0	0	509	487	0	500	38	4	
6	0	0	0	0	510	484	0	520	39	4	
7	0	0	0	0	514	483	0	530	39	4	
8	0	0	0	0	504	482	0	550	39	4	
9	0	0	0	0	506	474	0	550	39	4	
10	0	0	0	0	505	459	0	556	39	4	
11	0	0	0	0	510	441	0	564	39	4	
12	0	0	0	0	509	429	0	562	39	4	
13	0	0	0	0	505	429	0	574	39	4	
14	0	0	0	0	509	434	0	572	39	4	
15	0	0	0	0	503	439	0	574	39	4	
0	0	0	0	0	510	440	0	572	39	4	
1	0	0	0	0	507	439	0	558	39	4	
2	0	0	0	0	509	443	0	547	39	4	
3	0	0	0	0	507	446	0	532	39	4	
4	0	0	0	0	512	452	0	519	39	4	
5	0	0	0	0	508	460	0	507	39	4	
6	0	0	0	0	505	463	0	499	39	4	
7	0	0	0	0	499	463	0	493	39	4	
8	0	0	0	0	508	460	0	492	39	4	
9	0	0	0	0	512	461	0	488	38	4	
10	0	0	0	0	508	464	0	488	39	4	
11	0	0	0	0	508	464	0	487	38	4	
12	0	0	0	0	505	467	0	487	39	4	
13	0	0	0	0	508	473	0	488	38	4	
14	0	0	0	0	503	476	0	483	39	4	
15	0	0	0	0	508	476	0	483	39	4	
0	0	0	0	0	511	476	0	480	39	4	
1	0	0	0	0	509	479	0	478	39	4	
2	0	0	0	0	505	478	0	477	39	4	
3	0	0	0	0	504	472	0	480	38	4	
4	0	0	0	0	508	460	0	483	39	4	
5	0	0	0	0	507	451	0	487	38	4	
6	0	0	0	0	510	451	0	493	39	4	
7	0	0	0	0	505	450	0	487	39	4	
8	0	0	0	0	500	449	0	485	38	4	
9	0	0	0	0	507	451	0	484	38	4	
10	0	0	0	0	499	453	0	484	39	4	
11	0	0	0	0	514	457	0	487	38	4	
12	0	0	0	0	514	460	0	491	38	4	
13	0	0	0	0	510	461	0	494	38	4	
14	0	0	0	0	513	463	0	507	38	4	
15	0	0	0	0	506	471	0	543	38	4	
0	0	0	0	0	512	477	0	537	38	4	
1	0	0	0	0	507	477	0	555	38	4	
2	0	0	0	0	509	474	0	564	38	4	
3	0	0	0	0	507	471	0	567	38	4	
4	0	0	0	0	507	467	0	582	38	4	
5	0	0	0	0	508	462	0	572	38	4	
6	0	0	0	0	511	459	0	578	38	4	
7	0	0	0	0	508	463	0	576	38	4	
8	0	0	0	0	504	468	0	571	38	4	
9	0	0	0	0	509	470	0	579	38	4	
10	0	0	0	0	508	475	0	569	38	4	
11	0	0	0	0	505	484	0	563	38	4	
12	0	0	0	0	505	497	0	550	38	4	
13	0	0	0	0	510	498	0	536	38	4	
14	0	0	0	0	508	486	0	524	38	4	
15	0	0	0	0	503	465	0	513	38	4	
0	0	0	0	0	511	467	0	505	38	4	
1	0	0	0	0	514	467	0	499	39	4	
2	0	0	0	0	508	466	0	496	39	4	
3	0	0	0	0	499	474	0	494	39	4	
4	0	0	0	0	506	484	0	493	39	4	
5	0	0	0	0	507	485	0	491	39	4	
6	0	0	0	0	507	480	0	491	39	4	
7	0	0	0	0	506	478	0	489	39	4	
8	0	0	0	0	509	481	0	484	39	4	
9	0	0	0	0	508	485	0	481	39	4	
10	0	0	0	0	508	487	0	482	39	4	
11	0	0	0	0	504	490	0	485	39	4	
12	0	0	0	0	516	492	0	488	39	4	
13	0	0	0	0	505	492	0	492	39	4	
14	0	0	0	0	507	488	0	495	39	4	
15	0	0	0	0	505	490	0	496	39	4	
0	0	0	0	0	510	496	0	504	39	4	
1	0	0	0	0	505	498	0	492	39	4	
2	0	0	0	0	507	491	0	492	39	4	
3	0	0	0	0	507	486	0	494	39	4	
4	0	0	0	0	503	484	0	497	39	4	
5	0	0	0	0	510	486	0	501	39	4	
6	0	0	0	0	508	481	0	498	39	4	
7	0	0	0	0	509	484	0	505	39	4	
8	0	0	0	0	510	490	0	527	39	4	
9	0	0	0	0	500	487	0	537	39	4	
10	0	0	0	0	505	498	0	553	39	4	
11	0	0	0	0	510	498	0	567	39	4	
12	0	0	0	0	508	498	0	568	39	4	
13	0	0	0	0	509	500	0	581	39	4	
14	0	0	0	0	505	498	0	577	39	4	
15	0	0	0	0	507	493	0	577	39	4	
0	0	0	0	0	508	490	0	579	39	4	
1	0	0	0	0	505	489	0	569	39	4	
2	0	0	0	0	511	486	0	575	39	4	
3	0	0	0	0	510	479	0	570	39	4	
4	0	0	0	0	511	481	0	565	39	4	
5	0	0	0	0	502	489	0	551	39	4	
6	0	0	0	0	501	496	0	536	39	4	
7	0	0	0	0	500	503	0	520	39	4	
8	0	0	0	0	517	514	0	507	39	4	
9	0	0	0	0	512	518	0	499	39	4	
10	0	0	0	0	511	517	0	502	39	4	
11	0	0	0	0	515	513	0	527	39	4	
12	0	0	0	0	504	509	0	538	39	4	
13	0	0	0	0	503	512	0	555	39	4	
14	0	0	0	0	508	520	0	559	39	4	
15	0	0	0	0	508	524	0	551	39	4	
0	0	0	0	0	510	524	0	543	39	4	
1	0	0	0	0	504	523	0	527	39	4	
2	0	0	0	0	512	513	0	514	39	4	
3	0	0	0	0	508	508	0	507	39	4	
4	0	0	0	0	501	507	0	500	39	4	
5	0	0	0	0	501	505	0	496	38	4	
6	0	0	0	0	507	505	0	494	38	4	
7	0	0	0	0	508	505	0	501	38	4	
8	0	0	0	0	510	499	0	488	38	4	
9	0	0	0	0	512	496	0	487	38	4	
10	0	0	0	0	511	500	0	487	38	4	
11	0	0	0	0	508	500	0	487	38	4	
12	0	0	0	0	506	497	0	490	38	4	
13	0	0	0	0	518	493	0	488	38	4	
14	0	0	0	0	499	489	0	488	38	4	
15	0	0	0	0	511	480	0	490	38	4	
0	0	0	0	0	507	473	0	487	38	4	
1	0	0	0	0	499	473	0	485	38	4	
2	0	0	0	0	507	473	0	486	38	4	
3	0	0	0	0	510	474	0	488	38	4	
4	0	0	0	0	511	474	0	491	38	4	
5	0	0	0	0	508	476	0	495	38	4	
6	0	0	0	0	511	479	0	493	38	4	
7	0	0	0	0	504	473	0	490	38	4	
8	0	0	0	0	501	469	0	488	38	4	
9	0	0	0	0	510	462	0	485	38	4	
10	0	0	0	0	506	460	0	485	38	4	
11	0	0	0	0	510	467	0	487	38	4	
12	0	0	0	0	508	472	0	507	38	4	
13	0	0	0	0	514	478	0	531	38	4	
14	0	0	0	0	507	478	0	541	38	4	
15	0	0	0	0	508	480	0	559	38	4	
0	0	0	0	0	505	481	0	561	38	4	
1	0	0	0	0	514	480	0	565	38	4	
2	0	0	0	0	507	478	0	573	38	4	
3	0	0	0	0	504	472	0	564	38	4	
4	0	0	0	0	504	467	0	575	38	4	
5	0	0	0	0	507	464	0	574	38	4	
6	0	0	0	0	506	464	0	574	38	4	
7	0	0	0	0	501	472	0	572	38	4	
8	0	0	0	0	508	488	0	559	38	4	
9	0	0	0	0	504	500	0	547	38	4	
10	0	0	0	0	504	502	0	534	38	4	
11	0	0	0	0	514	499	0	516	38	4	
12	0	0	0	0	513	498	0	506	38	4	
13	0	0	0	0	504	507	0	498	38	4	
14	0	0	0	0	514	511	0	492	38	4	
15	0	0	0	0	505	507	0	490	38	4	
0	0	0	0	0	505	500	0	482	38	4	
1	0	0	0	0	502	498	0	478	38	4	
2	0	0	0	0	508	499	0	477	38	4	
3	0	0	0	0	504	501	0	478	38	4	
4	0	0	0	0	511	504	0	492	38	4	
5	0	0	0	0	504	509	0	479	38	4	
6	0	0	0	0	504	511	0	481	38	4	
7	0	0	0	0	507	513	0	481	38	4	
8	0	0	0	0	505	511	0	479	38	4	
9	0	0	0	0	508	505	0	489	38	4	
10	0	0	0	0	506	491	0	470	38	4	
11	0	0	0	0	511	476	0	471	38	4	
12	0	0	0	0	513	470	0	473	38	4	
13	0	0	0	0	505	465	0	476	38	4	
14	0	0	0	0	505	458	0	479	38	4	
15	0	0	0	0	505	454	0	476	38	4	
0	0	0	0	0	506	448	0	473	38	4	
1	0	0	0	0	509	444	0	469	38	4	
2	0	0	0	0	508	447	0	471	38	4	
3	0	0	0	0	510	447	0	487	38	4	
4	0	0	0	0	505	443	0	473	38	4	
5	0	0	0	0	508	440	0	487	38	4	
6	0	0	0	0	507	441	0	515	38	4	
7	0	0	0	0	508	446	0	523	38	4	
8	0	0	0	0	507	451	0	541	38	4	
9	0	0	0	0	504	454	0	544	38	4	
10	0	0	0	0	508	456	0	548	38	4	
11	0	0	0	0	508	457	0	560	38	4	
12	0	0	0	0	505	463	0	556	38	4	
13	0	0	0	0	509	473	0	558	38	4	
14	0	0	0	0	510	486	0	560	38	4	
15	0	0	0	0	510	502	0	558	39	4	
0	0	0	0	0	513	521	0	562	38	4	
1	0	0	0	0	502	544	0	551	38	4	
2	0	0	0	0	508	568	0	542	39	4	
3	0	0	0	0	508	591	0	526	38	4	
4	0	0	0	0	503	614	0	511	39	4	
5	0	0	0	0	509	639	0	501	38	4	
6	0	0	0	0	505	668	0	500	39	4	
7	0	0	0	0	510	699	0	487	38	4	
8	0	0	0	0	511	724	0	480	38	4	
9	0	0	0	0	506	747	0	476	38	4	
10	0	0	0	0	507	767	0	472	39	4	
11	0	0	0	0	510	785	0	486	38	4	
12	0	0	0	0	510	799	0	472	38	4	
13	0	0	0	0	504	812	0	471	38	4	
14	0	0	0	0	503	828	0	472	39	4	
15	0	0	0	0	506	834	0	471	39	4	
0	0	0	0	0	507	826	0	467	39	4	
1	0	0	0	0	512	812	0	465	39	4	
2	0	0	0	0	510	794	0	463	39	4	
3	0	0	0	0	501	776	0	465	39	4	
4	0	0	0	0	504	755	0	465	39	4	
5	0	0	0	0	509	731	0	467	39	4	
6	0	0	0	0	505	702	0	470	39	4	
7	0	0	0	0	506	674	0	466	38	4	
8	0	0	0	0	512	650	0	464	39	4	
9	0	0	0	0	508	623	0	461	39	4	
10	0	0	0	0	508	597	0	463	39	4	
11	0	0	0	0	512	568	0	476	38	4	
12	0	0	0	0	504	535	0	468	38	4	
13	0	0	0	0	503	502	0	473	38	4	
14	0	0	0	0	508	473	0	478	38	4	
15	0	0	0	0	504	446	0	479	38	4	
0	0	0	0	0	512	414	0	476	38	4	
1	0	0	0	0	507	382	0	477	38	4	
2	0	0	0	0	504	353	0	476	39	4	
3	0	0	0	0	509	331	0	478	38	4	
4	0	0	0	0	512	316	0	481	38	4	
5	0	0	0	0	503	304	0	483	38	4	
6	0	0	0	0	512	294	0	485	38	4	
7	0	0	0	0	508	292	0	483	38	4	
8	0	0	0	0	507	297	0	480	38	4	
9	0	0	0	0	503	303	0	476	38	4	
10	0	0	0	0	508	308	0	474	38	4	
11	0	0	0	0	510	314	0	479	38	4	
12	0	0	0	0	501	321	0	480	38	4	
13	0	0	0	0	503	336	0	483	38	4	
14	0	0	0	0	506	355	0	485	38	4	
15	0	0	0	0	511	374	0	485	38	4	
0	0	0	0	0	509	389	0	480	38	4	
1	0	0	0	0	509	397	0	488	38	4	
2	0	0	0	0	509	403	0	514	38	4	
3	0	0	0	0	516	409	0	527	38	4	
4	0	0	0	0	505	416	0	546	38	4	
5	0	0	0	0	511	422	0	559	38	4	
6	0	0	0	0	502	427	0	564	39	4	
7	0	0	0	0	511	432	0	575	38	4	
8	0	0	0	0	509	436	0	563	39	4	
9	0	0	0	0	507	436	0	568	39	4	
10	0	0	0	0	510	437	0	571	39	4	
11	0	0	0	0	507	439	0	570	39	4	
12	0	0	0	0	508	440	0	578	39	4	
13	0	0	0	0	506	439	0	568	39	4	
14	0	0	0	0	504	439	0	572	39	4	
15	0	0	0	0	509	439	0	569	39	4	
0	0	0	0	0	502	443	0	564	39	4	
1	0	0	0	0	498	446	0	570	39	4	
2	0	0	0	0	508	451	0	565	39	4	
3	0	0	0	0	505	455	0	571	39	4	
4	0	0	0	0	507	461	0	571	39	4	
5	0	0	0	0	511	469	0	564	39	4	
6	0	0	0	0	510	470	0	560	39	4	
7	0	0	0	0	510	474	0	568	39	4	
8	0	0	0	0	508	484	0	563	39	4	
9	0	0	0	0	506	487	0	564	39	4	
10	0	0	0	0	509	484	0	543	39	4	
11	0	0	0	0	508	478	0	529	39	4	
12	0	0	0	0	503	475	0	519	39	4	
13	0	0	0	0	502	473	0	511	39	4	
14	0	0	0	0	504	476	0	507	39	4	
15	0	0	0	0	506	473	0	499	39	4	
0	0	0	0	0	511	467	0	499	39	4	
1	0	0	0	0	510	464	0	493	39	4	
2	0	0	0	0	510	463	0	491	39	4	
3	0	0	0	0	510	467	0	494	39	4	
4	0	0	0	0	508	466	0	490	39	4	
5	0	0	0	0	503	465	0	490	39	4	
6	0	0	0	0	499	465	0	492	39	4	
7	0	0	0	0	504	466	0	493	39	4	
8	0	0	0	0	509	472	0	494	39	4	
9	0	0	0	0	508	467	0	489	39	4	
10	0	0	0	0	511	459	0	489	39	4	
11	0	0	0	0	511	463	0	490	39	4	
12	0	0	0	0	512	468	0	492	39	4	
13	0	0	0	0	509	479	0	496	39	4	
14	0	0	0	0	512	489	0	494	39	4	
15	0	0	0	0	502	490	0	495	39	4	
0	0	0	0	0	503	496	0	491	39	4	
1	0	0	0	0	506	499	0	489	39	4	
2	0	0	0	0	508	493	0	490	39	4	
3	0	0	0	0	513	492	0	491	39	4	
4	0	0	0	0	502	491	0	493	39	4	
5	0	0	0	0	504	491	0	498	39	4	
6	0	0	0	0	507	492	0	521	39	4	
7	0	0	0	0	505	499	0	538	39	4	
8	0	0	0	0	513	510	0	550	39	4	
9	0	0	0	0	504	519	0	567	39	4	
10	0	0	0	0	506	524	0	567	39	4	
11	0	0	0	0	508	527	0	577	39	4	
12	0	0	0	0	508	525	0	583	39	4	
13	0	0	0	0	505	529	0	583	39	4	
14	0	0	0	0	509	528	0	592	39	4	
15	0	0	0	0	508	527	0	582	39	4	
0	0	0	0	0	511	529	0	585	39	4	
1	0	0	0	0	511	532	0	580	39	4	
2	0	0	0	0	505	534	0	574	39	4	
3	0	0	0	0	512	532	0	563	39	4	
4	0	0	0	0	504	535	0	549	39	4	
5	0	0	0	0	506	534	0	534	39	4	
6	0	0	0	0	508	530	0	519	39	4	
7	0	0	0	0	507	531	0	510	39	4	
8	0	0	0	0	510	536	0	509	39	4	
9	0	0	0	0	506	542	0	529	39	4	
10	0	0	0	0	510	543	0	537	39	4	
11	0	0	0	0	509	544	0	543	39	4	
12	0	0	0	0	507	550	0	540	39	4	
13	0	0	0	0	504	552	0	531	39	4	
14	0	0	0	0	505	552	0	524	39	4	
15	0	0	0	0	510	551	0	513	39	4	
0	0	0	0	0	504	547	0	504	38	4	
1	0	0	0	0	510	540	0	496	38	4	
2	0	0	0	0	508	533	0	505	39	4	
3	0	0	0	0	503	524	0	491	38	4	
4	0	0	0	0	504	520	0	491	38	4	
5	0	0	0	0	513	519	0	490	38	4	
6	0	0	0	0	504	525	0	490	38	4	
7	0	0	0	0	501	535	0	489	38	4	
8	0	0	0	0	499	545	0	486	38	4	
9	0	0	0	0	510	556	0	482	38	4	
10	0	0	0	0	516	565	0	482	38	4	
11	0	0	0	0	503	571	0	486	38	4	
12	0	0	0	0	501	572	0	487	38	4	
13	0	0	0	0	503	576	0	489	38	4	
14	0	0	0	0	512	583	0	491	38	4	
15	0	0	0	0	513	588	0	491	38	4	
0	0	0	0	0	511	591	0	485	38	4	
1	0	0	0	0	504	595	0	483	38	4	
2	0	0	0	0	508	595	0	484	38	4	
3	0	0	0	0	505	591	0	486	38	4	
4	0	0	0	0	504	588	0	486	38	4	
5	0	0	0	0	515	588	0	490	38	4	
6	0	0	0	0	511	592	0	494	38	4	
7	0	0	0	0	512	594	0	496	38	4	
8	0	0	0	0	507	593	0	532	38	4	
9	0	0	0	0	504	593	0	529	38	4	
10	0	0	0	0	507	593	0	541	38	4	
11	0	0	0	0	499	595	0	563	38	4	
12	0	0	0	0	507	601	0	567	38	4	
13	0	0	0	0	505	609	0	580	38	4	
14	0	0	0	0	518	609	0	580	38	4	
15	0	0	0	0	510	601	0	577	38	4	
0	0	0	0	0	511	599	0	584	38	4	
1	0	0	0	0	511	606	0	576	38	4	
2	0	0	0	0	507	611	0	581	38	4	
3	0	0	0	0	504	615	0	579	38	4	
4	0	0	0	0	513	620	0	571	38	4	
5	0	0	0	0	504	621	0	564	38	4	
6	0	0	0	0	508	626	0	574	38	4	
7	0	0	0	0	516	633	0	566	38	4	
8	0	0	0	0	500	637	0	559	38	4	
9	0	0	0	0	506	636	0	544	38	4	
10	0	0	0	0	514	630	0	529	38	4	
11	0	0	0	0	512	630	0	516	38	4	
12	0	0	0	0	499	631	0	507	38	4	
13	0	0	0	0	511	626	0	499	38	4	
14	0	0	0	0	511	616	0	493	38	4	
15	0	0	0	0	511	604	0	491	38	4	
0	0	0	0	0	507	597	0	484	38	4	
1	0	0	0	0	510	596	0	480	38	4	
2	0	0	0	0	504	600	0	478	38	4	
3	0	0	0	0	502	603	0	480	38	4	
4	0	0	0	0	513	607	0	480	38	4	
5	0	0	0	0	508	615	0	482	38	4	
6	0	0	0	0	505	620	0	483	38	4	
7	0	0	0	0	504	623	0	478	38	4	
8	0	0	0	0	506	626	0	476	38	4	
9	0	0	0	0	508	626	0	473	38	4	
10	0	0	0	0	508	622	0	473	39	4	
11	0	0	0	0	509	623	0	476	38	4	
12	0	0	0	0	506	625	0	476	38	4	
13	0	0	0	0	510	623	0	479	38	4	
14	0	0	0	0	504	615	0	480	38	4	
15	0	0	0	0	507	607	0	483	38	4	
0	0	0	0	0	511	603	0	479	38	4	
1	0	0	0	0	508	598	0	478	38	4	
2	0	0	0	0	505	595	0	478	39	4	
3	0	0	0	0	504	595	0	480	38	4	
4	0	0	0	0	510	597	0	481	38	4	
5	0	0	0	0	514	595	0	504	38	4	
6	0	0	0	0	509	592	0	521	39	4	
7	0	0	0	0	500	591	0	531	38	4	
8	0	0	0	0	502	586	0	548	38	4	
9	0	0	0	0	508	581	0	542	38	4	
10	0	0	0	0	503	576	0	552	39	4	
11	0	0	0	0	506	576	0	559	38	4	
12	0	0	0	0	512	576	0	560	38	4	
13	0	0	0	0	502	573	0	570	38	4	
14	0	0	0	0	509	568	0	561	38	4	
15	0	0	0	0	510	560	0	564	38	4	
0	0	0	0	0	505	551	0	561	38	4	
1	0	0	0	0	501	543	0	555	38	4	
2	0	0	0	0	508	534	0	540	39	4	
3	0	0	0	0	505	525	0	527	38	4	
4	0	0	0	0	509	518	0	513	38	4	
5	0	0	0	0	507	507	0	504	38	4	
6	0	0	0	0	511	491	0	496	39	4	
7	0	0	0	0	517	478	0	491	38	4	
8	0	0	0	0	510	470	0	486	39	4	
9	0	0	0	0	515	461	0	479	39	4	
10	0	0	0	0	509	454	0	476	39	4	
11	0	0	0	0	507	456	0	477	39	4	
12	0	0	0	0	509	463	0	475	38	4	
13	0	0	0	0	505	467	0	476	39	4	
14	0	0	0	0	500	470	0	476	38	4	
15	0	0	0	0	501	472	0	476	38	4	
0	0	0	0	0	512	469	0	472	38	4	
1	0	0	0	0	505	465	0	469	39	4	
2	0	0	0	0	504	465	0	471	39	4	
3	0	0	0	0	503	467	0	479	38	4	
4	0	0	0	0	508	472	0	476	39	4	
5	0	0	0	0	505	474	0	479	39	4	
6	0	0	0	0	515	471	0	483	39	4	
7	0	0	0	0	512	470	0	484	39	4	
8	0	0	0	0	506	464	0	485	38	4	
9	0	0	0	0	507	455	0	480	38	4	
10	0	0	0	0	511	455	0	480	39	4	
11	0	0	0	0	506	452	0	481	39	4	
12	0	0	0	0	505	446	0	484	39	4	
13	0	0	0	0	507	447	0	489	38	4	
14	0	0	0	0	498	449	0	502	38	4	
15	0	0	0	0	506	453	0	521	39	4	
0	0	0	0	0	505	448	0	526	39	4	
1	0	0	0	0	513	447	0	546	39	4	
2	0	0	0	0	512	444	0	554	39	4	
3	0	0	0	0	513	445	0	559	38	4	
4	0	0	0	0	508	441	0	571	38	4	
5	0	0	0	0	507	437	0	568	38	4	
6	0	0	0	0	505	440	0	577	38	4	
7	0	0	0	0	504	443	0	567	39	4	
8	0	0	0	0	513	448	0	561	39	4	
9	0	0	0	0	498	449	0	563	39	4	
10	0	0	0	0	511	452	0	556	39	4	
11	0	0	0	0	507	451	0	550	39	4	
12	0	0	0	0	519	440	0	540	39	4	
13	0	0	0	0	515	430	0	521	39	4	
14	0	0	0	0	501	429	0	511	39	4	
15	0	0	0	0	501	434	0	504	39	4	
0	0	0	0	0	508	435	0	497	39	4	
1	0	0	0	0	508	439	0	492	39	4	
2	0	0	0	0	515	446	0	489	39	4	
3	0	0	0	0	506	449	0	488	39	4	
4	0	0	0	0	500	453	0	489	39	4	
5	0	0	0	0	499	447	0	489	39	4	
6	0	0	0	0	508	445	0	488	39	4	
7	0	0	0	0	505	445	0	487	39	4	
8	0	0	0	0	505	444	0	483	39	4	
9	0	0	0	0	507	444	0	481	39	4	
10	0	0	0	0	514	444	0	484	39	4	
11	0	0	0	0	504	447	0	487	39	4	
12	0	0	0	0	511	445	0	491	39	4	
13	0	0	0	0	507	446	0	492	39	4	
14	0	0	0	0	505	446	0	496	39	4	
15	0	0	0	0	510	449	0	496	39	4	
0	0	0	0	0	511	450	0	503	39	4	
1	0	0	0	0	500	446	0	492	39	4	
2	0	0	0	0	502	438	0	493	39	4	
3	0	0	0	0	507	432	0	494	39	4	
4	0	0	0	0	513	432	0	495	39	4	
5	0	0	0	0	507	433	0	498	39	4	
6	0	0	0	0	501	435	0	496	39	4	
7	0	0	0	0	513	434	0	507	39	4	
8	0	0	0	0	506	433	0	531	39	4	
9	0	0	0	0	503	436	0	542	39	4	
10	0	0	0	0	507	438	0	557	39	4	
11	0	0	0	0	511	439	0	565	39	4	
12	0	0	0	0	512	438	0	568	39	4	
13	0	0	0	0	513	434	0	582	39	4	
14	0	0	0	0	506	433	0	580	39	4	
15	0	0	0	0	507	433	0	583	39	4	
0	0	0	0	0	507	430	0	578	39	4	
1	0	0	0	0	504	431	0	569	39	4	
2	0	0	0	0	500	436	0	576	39	4	
3	0	0	0	0	513	442	0	569	39	4	
4	0	0	0	0	517	442	0	563	38	4	
5	0	0	0	0	510	441	0	549	38	4	
6	0	0	0	0	506	437	0	534	38	4	
7	0	0	0	0	502	434	0	524	38	4	
8	0	0	0	0	502	432	0	511	38	4	
9	0	0	0	0	511	434	0	500	38	4	
10	0	0	0	0	499	439	0	494	38	4	
11	0	0	0	0	505	446	0	493	38	4	
12	0	0	0	0	506	452	0	495	38	4	
13	0	0	0	0	505	455	0	494	38	4	
14	0	0	0	0	510	456	0	495	38	4	
15	0	0	0	0	508	460	0	492	38	4	
0	0	0	0	0	508	466	0	489	38	4	
1	0	0	0	0	508	474	0	487	38	4	
2	0	0	0	0	512	480	0	486	38	4	
3	0	0	0	0	508	479	0	489	38	4	
4	0	0	0	0	513	468	0	492	38	4	
5	0	0	0	0	508	455	0	497	38	4	
6	0	0	0	0	503	448	0	498	38	4	
7	0	0	0	0	508	446	0	499	38	4	
8	0	0	0	0	513	444	0	497	38	4	
9	0	0	0	0	510	442	0	497	38	4	
10	0	0	0	0	509	438	0	495	38	4	
11	0	0	0	0	512	437	0	498	38	4	
12	0	0	0	0	503	439	0	499	38	4	
13	0	0	0	0	511	446	0	499	38	4	
14	0	0	0	0	509	449	0	499	38	4	
15	0	0	0	0	507	452	0	499	38	4	
0	0	0	0	0	504	455	0	497	38	4	
1	0	0	0	0	504	454	0	495	38	4	
2	0	0	0	0	516	450	0	499	38	4	
3	0	0	0	0	504	448	0	497	38	4	
4	0	0	0	0	502	449	0	500	38	4	
5	0	0	0	0	506	449	0	505	38	4	
6	0	0	0	0	507	444	0	509	38	4	
7	0	0	0	0	515	434	0	505	38	4	
8	0	0	0	0	506	427	0	503	38	4	
9	0	0	0	0	504	428	0	501	38	4	
10	0	0	0	0	511	435	0	520	38	4	
11	0	0	0	0	511	439	0	506	38	4	
12	0	0	0	0	510	440	0	510	38	4	
13	0	0	0	0	504	440	0	510	38	4	
14	0	0	0	0	511	438	0	512	38	4	
15	0	0	0	0	507	435	0	514	38	4	
0	0	0	0	0	503	437	0	508	38	4	
1	0	0	0	0	508	441	0	506	38	4	
2	0	0	0	0	505	447	0	506	38	4	
3	0	0	0	0	512	454	0	519	38	4	
4	0	0	0	0	512	459	0	512	38	4	
5	0	0	0	0	504	462	0	516	38	4	
6	0	0	0	0	509	465	0	518	38	4	
7	0	0	0	0	500	474	0	514	39	4	
8	0	0	0	0	510	484	0	513	39	4	
9	0	0	0	0	510	489	0	508	38	4	
10	0	0	0	0	503	486	0	509	39	4	
11	0	0	0	0	502	480	0	512	38	4	
12	0	0	0	0	507	479	0	514	39	4	
13	0	0	0	0	513	476	0	518	39	4	
14	0	0	0	0	504	472	0	521	39	4	
15	0	0	0	0	509	468	0	520	39	4	
0	0	0	0	0	509	463	0	519	39	4	
1	0	0	0	0	508	466	0	518	39	4	
2	0	0	0	0	506	469	0	516	39	4	
3	0	0	0	0	504	464	0	518	39	4	
4	0	0	0	0	505	457	0	519	39	4	
5	0	0	0	0	505	451	0	521	39	4	
6	0	0	0	0	507	443	0	521	39	4	
7	0	0	0	0	506	439	0	516	39	4	
8	0	0	0	0	506	449	0	514	39	4	
9	0	0	0	0	506	462	0	512	39	4	
10	0	0	0	0	512	472	0	513	39	4	
11	0	0	0	0	506	475	0	516	39	4	
12	0	0	0	0	512	478	0	516	39	4	
13	0	0	0	0	504	481	0	519	39	4	
14	0	0	0	0	513	477	0	520	39	4	
15	0	0	0	0	515	472	0	519	39	4	
0	0	0	0	0	510	469	0	516	39	4	
1	0	0	0	0	505	468	0	513	39	4	
2	0	0	0	0	502	470	0	521	39	4	
3	0	0	0	0	506	470	0	552	39	4	
4	0	0	0	0	506	469	0	568	38	4	
5	0	0	0	0	503	473	0	583	38	4	
6	0	0	0	0	510	484	0	595	39	4	
7	0	0	0	0	507	487	0	590	39	4	
8	0	0	0	0	505	486	0	600	39	4	
9	0	0	0	0	506	489	0	596	38	4	
10	0	0	0	0	510	487	0	600	39	4	
11	0	0	0	0	510	487	0	604	39	4	
12	0	0	0	0	506	488	0	594	38	4	
13	0	0	0	0	511	487	0	603	39	4	
14	0	0	0	0	510	484	0	594	39	4	
15	0	0	0	0	506	482	0	593	38	4	
0	0	0	0	0	512	483	0	595	39	4	
1	0	0	0	0	507	486	0	591	38	4	
2	0	0	0	0	503	484	0	590	39	4	
3	0	0	0	0	507	478	0	584	38	4	
4	0	0	0	0	512	473	0	583	38	4	
5	0	0	0	0	515	479	0	590	38	4	
6	0	0	0	0	510	484	0	585	38	4	
7	0	0	0	0	504	487	0	589	38	4	
8	0	0	0	0	509	489	0	577	38	4	
9	0	0	0	0	500	496	0	574	38	4	
10	0	0	0	0	513	506	0	577	38	4	
11	0	0	0	0	510	511	0	571	38	4	
12	0	0	0	0	505	514	0	577	38	4	
13	0	0	0	0	511	516	0	574	38	4	
14	0	0	0	0	505	521	0	572	38	4	
15	0	0	0	0	506	526	0	572	38	4	
0	0	0	0	0	510	524	0	561	39	4	
1	0	0	0	0	505	523	0	565	38	4	
2	0	0	0	0	505	524	0	564	39	4	
3	0	0	0	0	501	525	0	566	38	4	
4	0	0	0	0	508	527	0	568	38	4	
5	0	0	0	0	509	525	0	561	38	4	
6	0	0	0	0	508	521	0	567	38	4	
7	0	0	0	0	512	519	0	558	38	4	
8	0	0	0	0	507	508	0	550	38	4	
9	0	0	0	0	517	500	0	540	39	4	
10	0	0	0	0	515	500	0	520	39	4	
11	0	0	0	0	515	502	0	509	38	4	
12	0	0	0	0	507	499	0	499	38	4	
13	0	0	0	0	505	497	0	491	39	4	
14	0	0	0	0	510	494	0	488	39	4	
15	0	0	0	0	505	496	0	483	39	4	
0	0	0	0	0	512	501	0	476	39	4	
1	0	0	0	0	507	508	0	471	39	4	
2	0	0	0	0	512	515	0	468	39	4	
3	0	0	0	0	500	519	0	472	39	4	
4	0	0	0	0	497	514	0	472	39	4	
5	0	0	0	0	505	506	0	475	39	4	
6	0	0	0	0	509	499	0	476	39	4	
7	0	0	0	0	511	493	0	488	39	4	
8	0	0	0	0	502	489	0	472	39	4	
9	0	0	0	0	512	490	0	467	39	4	
10	0	0	0	0	506	488	0	469	39	4	
11	0	0	0	0	506	487	0	472	39	4	
12	0	0	0	0	506	488	0	475	39	4	
13	0	0	0	0	504	492	0	477	39	4	
14	0	0	0	0	506	497	0	480	39	4	
15	0	0	0	0	509	503	0	480	39	4	
0	0	0	0	0	509	506	0	480	39	4	
1	0	0	0	0	509	510	0	473	39	4	
2	0	0	0	0	511	518	0	475	39	4	
3	0	0	0	0	510	518	0	476	39	4	
4	0	0	0	0	504	522	0	480	39	4	
5	0	0	0	0	505	519	0	505	39	4	
6	0	0	0	0	504	506	0	520	39	4	
7	0	0	0	0	509	491	0	533	39	4	
8	0	0	0	0	503	478	0	550	39	4	
9	0	0	0	0	512	465	0	547	39	4	
10	0	0	0	0	507	461	0	559	39	4	
11	0	0	0	0	504	461	0	563	39	4	
12	0	0	0	0	507	461	0	564	39	4	
13	0	0	0	0	507	461	0	572	39	4	
14	0	0	0	0	505	462	0	563	39	4	
15	0	0	0	0	505	463	0	567	39	4	
0	0	0	0	0	515	466	0	560	39	4	
1	0	0	0	0	505	468	0	549	39	4	
2	0	0	0	0	508	476	0	537	39	4	
3	0	0	0	0	512	483	0	524	39	4	
4	0	0	0	0	508	485	0	510	39	4	
5	0	0	0	0	504	488	0	501	39	4	
6	0	0	0	0	511	496	0	494	39	4	
7	0	0	0	0	510	501	0	490	39	4	
8	0	0	0	0	507	502	0	489	39	4	
9	0	0	0	0	506	499	0	483	39	4	
10	0	0	0	0	506	496	0	482	39	4	
11	0	0	0	0	505	493	0	483	39	4	
12	0	0	0	0	501	490	0	485	39	4	
13	0	0	0	0	512	491	0	489	38	4	
14	0	0	0	0	507	490	0	488	39	4	
15	0	0	0	0	507	490	0	487	39	4	
0	0	0	0	0	505	489	0	486	39	4	
1	0	0	0	0	508	489	0	495	39	4	
2	0	0	0	0	506	489	0	484	39	4	
3	0	0	0	0	512	487	0	487	38	4	
4	0	0	0	0	504	484	0	491	38	4	
5	0	0	0	0	504	481	0	493	39	4	
6	0	0	0	0	506	476	0	497	39	4	
7	0	0	0	0	515	472	0	496	38	4	
8	0	0	0	0	505	473	0	493	39	4	
9	0	0	0	0	502	476	0	491	38	4	
10	0	0	0	0	511	483	0	492	38	4	
11	0	0	0	0	508	492	0	494	38	4	
12	0	0	0	0	506	497	0	496	38	4	
13	0	0	0	0	504	499	0	498	38	4	
14	0	0	0	0	504	501	0	516	38	4	
15	0	0	0	0	505	503	0	535	38	4	
0	0	0	0	0	508	498	0	542	38	4	
1	0	0	0	0	518	497	0	561	38	4	
2	0	0	0	0	506	499	0	567	39	4	
3	0	0	0	0	503	496	0	574	38	4	
4	0	0	0	0	506	497	0	593	38	4	
5	0	0	0	0	507	494	0	581	38	4	
6	0	0	0	0	510	485	0	588	39	4	
7	0	0	0	0	503	475	0	578	38	4	
8	0	0	0	0	508	469	0	576	38	4	
9	0	0	0	0	505	467	0	577	39	4	
10	0	0	0	0	509	465	0	571	39	4	
11	0	0	0	0	506	473	0	562	38	4	
12	0	0	0	0	512	478	0	550	39	4	
13	0	0	0	0	515	481	0	537	39	4	
14	0	0	0	0	504	481	0	533	39	4	
15	0	0	0	0	504	481	0	517	39	4	
0	0	0	0	0	507	493	0	513	39	4	
1	0	0	0	0	509	506	0	532	39	4	
2	0	0	0	0	510	510	0	547	39	4	
3	0	0	0	0	501	513	0	554	39	4	
4	0	0	0	0	503	516	0	553	39	4	
5	0	0	0	0	503	524	0	541	39	4	
6	0	0	0	0	506	537	0	531	39	4	
7	0	0	0	0	507	551	0	521	39	4	
8	0	0	0	0	512	568	0	529	39	4	
9	0	0	0	0	511	586	0	504	39	4	
10	0	0	0	0	507	607	0	499	39	4	
11	0	0	0	0	511	627	0	498	39	4	
12	0	0	0	0	504	645	0	496	39	4	
13	0	0	0	0	503	663	0	510	39	4	
14	0	0	0	0	508	679	0	497	39	4	
15	0	0	0	0	511	700	0	496	39	4	
0	0	0	0	0	509	721	0	494	39	4	
1	0	0	0	0	506	740	0	493	39	4	
2	0	0	0	0	507	755	0	494	39	4	
3	0	0	0	0	504	768	0	497	39	4	
4	0	0	0	0	507	778	0	496	39	4	
5	0	0	0	0	509	790	0	498	39	4	
6	0	0	0	0	507	795	0	497	39	4	
7	0	0	0	0	506	793	0	499	39	4	
8	0	0	0	0	510	783	0	493	39	4	
9	0	0	0	0	510	766	0	489	39	4	
10	0	0	0	0	510	749	0	490	39	4	
11	0	0	0	0	499	732	0	491	39	4	
12	0	0	0	0	507	710	0	496	39	4	
13	0	0	0	0	507	683	0	496	38	4	
14	0	0	0	0	511	655	0	499	38	4	
15	0	0	0	0	507	628	0	499	38	4	
0	0	0	0	0	506	603	0	515	38	4	
1	0	0	0	0	509	576	0	534	39	4	
2	0	0	0	0	515	547	0	539	39	4	
3	0	0	0	0	503	516	0	562	39	4	
4	0	0	0	0	510	486	0	570	38	4	
5	0	0	0	0	512	455	0	578	38	4	
6	0	0	0	0	509	420	0	584	38	4	
7	0	0	0	0	501	388	0	575	38	4	
8	0	0	0	0	508	363	0	580	38	4	
9	0	0	0	0	505	342	0	573	38	4	
10	0	0	0	0	508	328	0	573	38	4	
11	0	0	0	0	503	317	0	579	38	4	
12	0	0	0	0	516	311	0	573	38	4	
13	0	0	0	0	504	308	0	564	38	4	
14	0	0	0	0	508	308	0	569	38	4	
15	0	0	0	0	505	309	0	568	38	4	
0	0	0	0	0	510	312	0	560	38	4	
1	0	0	0	0	503	318	0	552	38	4	
2	0	0	0	0	508	327	0	535	38	4	
3	0	0	0	0	512	337	0	522	38	4	
4	0	0	0	0	507	348	0	512	38	4	
5	0	0	0	0	501	357	0	505	38	4	
6	0	0	0	0	501	367	0	501	38	4	
7	0	0	0	0	505	378	0	495	38	4	
8	0	0	0	0	507	390	0	487	38	4	
9	0	0	0	0	504	399	0	484	38	4	
10	0	0	0	0	512	411	0	484	38	4	
11	0	0	0	0	512	420	0	485	38	4	
12	0	0	0	0	508	422	0	488	38	4	
13	0	0	0	0	502	424	0	487	38	4	
14	0	0	0	0	506	430	0	487	38	4	
15	0	0	0	0	507	435	0	487	38	4	
0	0	0	0	0	509	437	0	484	38	4	
1	0	0	0	0	506	440	0	482	38	4	
2	0	0	0	0	512	449	0	481	38	4	
3	0	0	0	0	505	460	0	481	38	4	
4	0	0	0	0	510	465	0	485	38	4	
5	0	0	0	0	508	464	0	486	38	4	
6	0	0	0	0	507	465	0	488	38	4	
7	0	0	0	0	509	466	0	487	39	4	
8	0	0	0	0	515	462	0	482	38	4	
9	0	0	0	0	512	461	0	480	39	4	
10	0	0	0	0	507	466	0	480	39	4	
11	0	0	0	0	510	465	0	481	39	4	
12	0	0	0	0	499	465	0	487	39	4	
13	0	0	0	0	508	471	0	487	39	4	
14	0	0	0	0	509	480	0	488	39	4	
15	0	0	0	0	501	486	0	487	39	4	
0	0	0	0	0	508	490	0	484	39	4	
1	0	0	0	0	508	499	0	480	39	4	
2	0	0	0	0	505	505	0	497	39	4	
3	0	0	0	0	509	504	0	523	39	4	
4	0	0	0	0	511	499	0	550	39	4	
5	0	0	0	0	503	492	0	556	39	4	
6	0	0	0	0	506	487	0	555	39	4	
7	0	0	0	0	505	485	0	559	39	4	
8	0	0	0	0	509	483	0	563	39	4	
9	0	0	0	0	502	489	0	555	39	4	
10	0	0	0	0	504	495	0	563	39	4	
11	0	0	0	0	506	499	0	562	39	4	
12	0	0	0	0	513	497	0	570	39	4	
13	0	0	0	0	504	492	0	570	39	4	
14	0	0	0	0	505	487	0	563	39	4	
15	0	0	0	0	512	490	0	571	39	4	
0	0	0	0	0	504	499	0	566	39	4	
1	0	0	0	0	515	507	0	558	39	4	
2	0	0	0	0	509	512	0	546	39	4	
3	0	0	0	0	507	508	0	531	39	4	
4	0	0	0	0	504	501	0	520	39	4	
5	0	0	0	0	511	497	0	509	39	4	
6	0	0	0	0	507	496	0	498	39	4	
7	0	0	0	0	501	496	0	494	39	4	
8	0	0	0	0	502	497	0	490	39	4	
9	0	0	0	0	504	502	0	484	38	4	
10	0	0	0	0	510	509	0	482	39	4	
11	0	0	0	0	512	513	0	481	39	4	
12	0	0	0	0	516	513	0	495	39	4	
13	0	0	0	0	512	508	0	484	38	4	
14	0	0	0	0	505	501	0	481	38	4	
15	0	0	0	0	508	496	0	480	38	4	
0	0	0	0	0	510	494	0	477	38	4	
1	0	0	0	0	513	496	0	475	39	4	
2	0	0	0	0	503	497	0	473	39	4	
3	0	0	0	0	504	496	0	475	38	4	
4	0	0	0	0	509	496	0	476	39	4	
5	0	0	0	0	506	502	0	486	38	4	
6	0	0	0	0	508	511	0	479	38	4	
7	0	0	0	0	508	517	0	476	38	4	
8	0	0	0	0	511	516	0	472	38	4	
9	0	0	0	0	512	512	0	467	38	4	
10	0	0	0	0	508	510	0	467	38	4	
11	0	0	0	0	511	512	0	468	38	4	
12	0	0	0	0	502	517	0	470	39	4	
13	0	0	0	0	505	519	0	473	38	4	
14	0	0	0	0	504	519	0	476	38	4	
15	0	0	0	0	501	518	0	471	38	4	
0	0	0	0	0	511	516	0	468	38	4	
1	0	0	0	0	509	514	0	465	38	4	
2	0	0	0	0	510	524	0	465	38	4	
3	0	0	0	0	507	529	0	466	38	4	
4	0	0	0	0	500	534	0	467	38	4	
5	0	0	0	0	507	539	0	470	38	4	
6	0	0	0	0	508	540	0	474	38	4	
7	0	0	0	0	505	540	0	471	38	4	
8	0	0	0	0	504	538	0	465	38	4	
9	0	0	0	0	506	535	0	462	38	4	
10	0	0	0	0	506	530	0	461	38	4	
11	0	0	0	0	507	531	0	461	38	4	
12	0	0	0	0	509	536	0	463	38	4	
13	0	0	0	0	512	540	0	478	38	4	
14	0	0	0	0	512	549	0	463	38	4	
15	0	0	0	0	507	559	0	461	38	4	
0	0	0	0	0	508	570	0	457	38	4	
1	0	0	0	0	507	577	0	456	38	4	
2	0	0	0	0	500	574	0	458	38	4	
3	0	0	0	0	511	563	0	460	38	4	
4	0	0	0	0	514	559	0	463	38	4	
5	0	0	0	0	513	556	0	467	38	4	
6	0	0	0	0	509	556	0	471	38	4	
7	0	0	0	0	506	561	0	478	38	4	
8	0	0	0	0	509	560	0	467	38	4	
9	0	0	0	0	500	562	0	477	38	4	
10	0	0	0	0	500	568	0	503	39	4	
11	0	0	0	0	511	574	0	514	39	4	
12	0	0	0	0	509	577	0	532	39	4	
13	0	0	0	0	500	575	0	540	38	4	
14	0	0	0	0	507	572	0	543	39	4	
15	0	0	0	0	515	570	0	554	39	4	
0	0	0	0	0	506	569	0	550	39	4	
1	0	0	0	0	509	574	0	555	38	4	
2	0	0	0	0	502	581	0	556	39	4	
3	0	0	0	0	502	583	0	555	39	4	
4	0	0	0	0	505	584	0	566	38	4	
5	0	0	0	0	500	588	0	568	39	4	
6	0	0	0	0	513	591	0	542	39	4	
7	0	0	0	0	511	596	0	540	39	4	
8	0	0	0	0	504	600	0	545	38	4	
9	0	0	0	0	512	608	0	540	39	4	
10	0	0	0	0	507	614	0	554	39	4	
11	0	0	0	0	507	616	0	550	39	4	
12	0	0	0	0	508	619	0	553	38	4	
13	0	0	0	0	508	624	0	561	39	4	
14	0	0	0	0	513	623	0	556	39	4	
15	0	0	0	0	507	619	0	579	39	4	
0	0	0	0	0	506	621	0	557	38	4	
1	0	0	0	0	508	621	0	556	38	4	
2	0	0	0	0	502	622	0	560	39	4	
3	0	0	0	0	502	624	0	554	38	4	
4	0	0	0	0	505	630	0	563	39	4	
5	0	0	0	0	511	623	0	561	39	4	
6	0	0	0	0	512	611	0	560	39	4	
7	0	0	0	0	510	606	0	560	39	4	
8	0	0	0	0	504	605	0	547	39	4	
9	0	0	0	0	505	604	0	547	39	4	
10	0	0	0	0	505	593	0	521	39	4	
11	0	0	0	0	508	583	0	508	39	4	
12	0	0	0	0	505	580	0	499	39	4	
13	0	0	0	0	509	583	0	493	39	4	
14	0	0	0	0	511	587	0	501	39	4	
15	0	0	0	0	511	590	0	483	39	4	
0	0	0	0	0	507	590	0	479	39	4	
1	0	0	0	0	504	585	0	476	39	4	
2	0	0	0	0	506	581	0	472	39	4	
3	0	0	0	0	508	582	0	475	39	4	
4	0	0	0	0	519	585	0	472	39	4	
5	0	0	0	0	506	595	0	472	38	4	
6	0	0	0	0	505	605	0	474	39	4	
7	0	0	0	0	512	611	0	472	38	4	
8	0	0	0	0	506	608	0	472	38	4	
9	0	0	0	0	505	603	0	463	39	4	
10	0	0	0	0	500	593	0	462	39	4	
11	0	0	0	0	503	579	0	464	39	4	
12	0	0	0	0	503	569	0	466	38	4	
13	0	0	0	0	509	560	0	471	39	4	
14	0	0	0	0	503	554	0	470	39	4	
15	0	0	0	0	506	554	0	469	39	4	
0	0	0	0	0	503	551	0	466	39	4	
1	0	0	0	0	507	545	0	463	39	4	
2	0	0	0	0	508	539	0	467	39	4	
3	0	0	0	0	507	539	0	466	38	4	
4	0	0	0	0	509	538	0	471	38	4	
5	0	0	0	0	506	534	0	474	39	4	
6	0	0	0	0	507	529	0	490	38	4	
7	0	0	0	0	510	529	0	478	39	4	
8	0	0	0	0	505	527	0	499	38	4	
9	0	0	0	0	511	525	0	514	38	4	
10	0	0	0	0	514	520	0	527	39	4	
11	0	0	0	0	508	516	0	555	39	4	
12	0	0	0	0	511	510	0	554	39	4	
13	0	0	0	0	504	505	0	565	38	4	
14	0	0	0	0	511	499	0	568	38	4	
15	0	0	0	0	502	493	0	566	38	4	
0	0	0	0	0	506	492	0	575	38	4	
1	0	0	0	0	506	493	0	565	38	4	
2	0	0	0	0	507	493	0	570	38	4	
3	0	0	0	0	513	495	0	569	38	4	
4	0	0	0	0	508	493	0	566	38	4	
5	0	0	0	0	509	488	0	558	38	4	
6	0	0	0	0	511	481	0	568	38	4	
7	0	0	0	0	513	471	0	563	38	4	
8	0	0	0	0	501	462	0	557	38	4	
9	0	0	0	0	504	459	0	541	38	4	
10	0	0	0	0	504	461	0	529	38	4	
11	0	0	0	0	504	468	0	518	38	4	
12	0	0	0	0	508	474	0	509	38	4	
13	0	0	0	0	509	475	0	505	38	4	
14	0	0	0	0	508	480	0	498	38	4	
15	0	0	0	0	508	487	0	497	38	4	
0	0	0	0	0	508	493	0	493	38	4	
1	0	0	0	0	507	496	0	490	38	4	
2	0	0	0	0	505	492	0	491	38	4	
3	0	0	0	0	510	487	0	489	38	4	
4	0	0	0	0	509	480	0	492	38	4	
5	0	0	0	0	506	471	0	493	38	4	
6	0	0	0	0	506	465	0	496	38	4	
7	0	0	0	0	509	463	0	492	38	4	
8	0	0	0	0	506	457	0	489	38	4	
9	0	0	0	0	508	456	0	488	38	4	
10	0	0	0	0	512	460	0	489	38	4	
11	0	0	0	0	514	463	0	493	38	4	
12	0	0	0	0	509	468	0	492	38	4	
13	0	0	0	0	501	478	0	496	38	4	
14	0	0	0	0	499	487	0	499	38	4	
15	0	0	0	0	507	485	0	501	38	4	
0	0	0	0	0	506	475	0	494	38	4	
1	0	0	0	0	505	470	0	493	38	4	
2	0	0	0	0	509	466	0	494	38	4	
3	0	0	0	0	512	461	0	498	38	4	
4	0	0	0	0	513	455	0	496	38	4	
5	0	0	0	0	500	450	0	499	38	4	
6	0	0	0	0	507	441	0	499	38	4	
7	0	0	0	0	505	434	0	510	39	4	
8	0	0	0	0	508	429	0	534	38	4	
9	0	0	0	0	512	426	0	541	38	4	
10	0	0	0	0	505	427	0	560	38	4	
11	0	0	0	0	508	430	0	570	39	4	
12	0	0	0	0	505	440	0	561	38	4	
13	0	0	0	0	507	450	0	555	38	4	
14	0	0	0	0	507	454	0	564	39	4	
15	0	0	0	0	514	454	0	561	39	4	
0	0	0	0	0	505	451	0	564	39	4	
1	0	0	0	0	511	454	0	572	39	4	
2	0	0	0	0	512	460	0	572	39	4	
3	0	0	0	0	503	464	0	580	39	4	
4	0	0	0	0	510	463	0	575	39	4	
5	0	0	0	0	508	464	0	577	39	4	
6	0	0	0	0	509	468	0	584	39	4	
