# OpenSignals Text File Format. Version 1
# {"98:D3:51:FD:71:01": {"position": 0, "device": "bitalino_rev", "device name": "98:D3:51:FD:71:01", "device connection": "BTH98:D3:51:FD:71:01", "sampling rate": 1000, "resolution": [4, 1, 1, 1, 1, 10, 10, 10, 10, 6, 6], "firmware version": 1282, "comments": "", "keywords": "", "mode": 0, "sync interval": 2, "date": "2024-4-19", "time": "11:57:24.550", "channels": [1, 2, 3, 4, 5, 6], "sensor": ["RAW", "RAW", "RAW", "RAW", "RAW", "RAW"], "label": ["A1", "A2", "A3", "A4", "A5", "A6"], "column": ["nSeq", "I1", "I2", "O1", "O2", "A1", "A2", "A3", "A4", "A5", "A6"], "special": [{}, {}, {}, {}, {}, {}], "digital IO": [0, 0, 1, 1]}}
# EndOfHeader
0	0	0	0	0	505	495	0	466	38	7	
1	0	0	0	0	512	491	0	463	39	7	
2	0	0	0	0	511	487	0	463	39	7	
3	0	0	0	0	499	485	0	465	38	7	
4	0	0	0	0	512	483	0	459	39	7	
5	0	0	0	0	514	484	0	462	38	7	
6	0	0	0	0	510	483	0	454	39	7	
7	0	0	0	0	510	482	0	452	39	7	
8	0	0	0	0	505	482	0	453	39	7	
9	0	0	0	0	509	485	0	449	39	7	
10	0	0	0	0	505	490	0	455	38	8	
11	0	0	0	0	509	491	0	453	38	7	
12	0	0	0	0	507	491	0	458	39	7	
13	0	0	0	0	506	491	0	460	39	7	
14	0	0	0	0	505	495	0	463	39	7	
15	0	0	0	0	503	499	0	460	39	7	
0	0	0	0	0	509	498	0	457	39	7	
1	0	0	0	0	506	496	0	455	39	7	
2	0	0	0	0	507	497	0	457	38	7	
3	0	0	0	0	508	499	0	452	38	7	
4	0	0	0	0	507	500	0	471	39	7	
5	0	0	0	0	503	501	0	483	39	7	
6	0	0	0	0	509	500	0	490	39	7	
7	0	0	0	0	505	500	0	499	39	7	
8	0	0	0	0	508	503	0	515	39	7	
9	0	0	0	0	509	504	0	528	38	7	
10	0	0	0	0	510	504	0	528	39	7	
11	0	0	0	0	512	502	0	524	38	7	
12	0	0	0	0	499	502	0	507	39	7	
13	0	0	0	0	510	503	0	489	39	7	
14	0	0	0	0	510	508	0	484	38	7	
15	0	0	0	0	500	509	0	473	39	7	
0	0	0	0	0	505	510	0	464	39	7	
1	0	0	0	0	503	510	0	459	39	7	
2	0	0	0	0	510	510	0	452	39	7	
3	0	0	0	0	504	509	0	452	38	8	
4	0	0	0	0	512	507	0	450	39	7	
5	0	0	0	0	508	510	0	454	39	7	
6	0	0	0	0	502	511	0	455	39	7	
7	0	0	0	0	514	511	0	454	39	7	
8	0	0	0	0	511	514	0	452	38	7	
9	0	0	0	0	503	514	0	446	39	7	
10	0	0	0	0	502	515	0	452	38	7	
11	0	0	0	0	503	515	0	452	38	7	
12	0	0	0	0	518	514	0	453	39	8	
13	0	0	0	0	507	515	0	455	38	7	
14	0	0	0	0	508	519	0	451	39	7	
15	0	0	0	0	505	525	0	450	39	7	
0	0	0	0	0	505	521	0	447	39	7	
1	0	0	0	0	514	518	0	442	39	7	
2	0	0	0	0	512	516	0	445	38	7	
3	0	0	0	0	503	514	0	445	38	7	
4	0	0	0	0	504	515	0	451	39	7	
5	0	0	0	0	503	515	0	455	39	7	
6	0	0	0	0	507	513	0	455	39	7	
7	0	0	0	0	510	513	0	473	39	7	
8	0	0	0	0	510	514	0	486	39	7	
9	0	0	0	0	500	515	0	496	38	7	
10	0	0	0	0	506	518	0	516	38	7	
11	0	0	0	0	505	519	0	524	38	7	
12	0	0	0	0	504	520	0	531	39	7	
13	0	0	0	0	509	519	0	541	39	7	
14	0	0	0	0	509	522	0	536	39	7	
15	0	0	0	0	506	521	0	553	39	7	
0	0	0	0	0	515	518	0	530	39	7	
1	0	0	0	0	507	513	0	529	39	7	
2	0	0	0	0	508	510	0	532	39	7	
3	0	0	0	0	502	508	0	527	38	7	
4	0	0	0	0	514	507	0	533	39	7	
5	0	0	0	0	515	505	0	532	39	8	
6	0	0	0	0	513	504	0	530	39	7	
7	0	0	0	0	508	503	0	531	39	7	
8	0	0	0	0	508	504	0	520	38	7	
9	0	0	0	0	497	505	0	509	38	7	
10	0	0	0	0	512	503	0	491	39	7	
11	0	0	0	0	507	504	0	480	38	7	
12	0	0	0	0	515	501	0	468	39	7	
13	0	0	0	0	505	501	0	462	38	7	
14	0	0	0	0	506	499	0	457	39	7	
15	0	0	0	0	512	498	0	456	39	7	
0	0	0	0	0	513	498	0	448	38	7	
1	0	0	0	0	500	497	0	442	39	7	
2	0	0	0	0	501	500	0	444	38	7	
3	0	0	0	0	508	503	0	445	38	7	
4	0	0	0	0	510	503	0	468	38	7	
5	0	0	0	0	508	504	0	487	38	8	
6	0	0	0	0	514	505	0	495	39	8	
7	0	0	0	0	497	505	0	512	39	7	
8	0	0	0	0	510	504	0	512	39	7	
9	0	0	0	0	510	502	0	507	38	7	
10	0	0	0	0	500	502	0	500	38	7	
11	0	0	0	0	516	503	0	485	38	7	
12	0	0	0	0	511	505	0	478	39	7	
13	0	0	0	0	502	503	0	471	39	7	
14	0	0	0	0	510	505	0	459	39	8	
15	0	0	0	0	509	509	0	456	39	7	
0	0	0	0	0	501	512	0	450	39	7	
1	0	0	0	0	508	513	0	448	39	7	
2	0	0	0	0	504	512	0	443	39	7	
3	0	0	0	0	512	509	0	443	38	7	
4	0	0	0	0	510	507	0	444	38	7	
5	0	0	0	0	508	506	0	440	39	7	
6	0	0	0	0	505	504	0	446	39	7	
7	0	0	0	0	500	503	0	444	39	7	
8	0	0	0	0	512	503	0	441	39	7	
9	0	0	0	0	514	504	0	446	38	7	
10	0	0	0	0	504	502	0	444	39	7	
11	0	0	0	0	505	498	0	446	38	7	
12	0	0	0	0	507	496	0	449	39	7	
13	0	0	0	0	508	496	0	449	39	7	
14	0	0	0	0	512	495	0	450	39	8	
15	0	0	0	0	506	496	0	444	39	7	
0	0	0	0	0	504	495	0	448	39	7	
1	0	0	0	0	503	496	0	443	39	7	
2	0	0	0	0	509	496	0	444	39	7	
3	0	0	0	0	511	496	0	447	38	7	
4	0	0	0	0	504	495	0	446	39	7	
5	0	0	0	0	512	498	0	455	39	7	
6	0	0	0	0	507	497	0	473	39	7	
7	0	0	0	0	508	500	0	483	39	8	
8	0	0	0	0	507	504	0	496	38	7	
9	0	0	0	0	510	505	0	515	39	7	
10	0	0	0	0	508	502	0	523	38	7	
11	0	0	0	0	509	502	0	536	38	7	
12	0	0	0	0	510	500	0	536	39	7	
13	0	0	0	0	506	499	0	537	39	7	
14	0	0	0	0	511	497	0	543	39	7	
15	0	0	0	0	510	501	0	536	39	7	
0	0	0	0	0	509	502	0	543	39	7	
1	0	0	0	0	513	499	0	539	39	7	
2	0	0	0	0	500	501	0	533	38	7	
3	0	0	0	0	504	505	0	518	38	7	
4	0	0	0	0	505	505	0	506	39	7	
5	0	0	0	0	499	504	0	492	38	7	
6	0	0	0	0	513	502	0	478	39	7	
7	0	0	0	0	504	502	0	472	39	8	
8	0	0	0	0	511	498	0	462	39	7	
9	0	0	0	0	511	495	0	460	39	7	
10	0	0	0	0	504	496	1	460	38	7	
11	0	0	0	0	508	496	0	459	38	7	
12	0	0	0	0	506	497	0	459	38	7	
13	0	0	0	0	509	495	0	454	39	7	
14	0	0	0	0	507	492	0	456	38	7	
15	0	0	0	0	501	491	0	452	39	7	
0	0	0	0	0	513	497	0	445	39	8	
1	0	0	0	0	509	505	0	449	38	7	
2	0	0	0	0	515	507	0	448	39	7	
3	0	0	0	0	505	509	0	451	38	7	
4	0	0	0	0	502	510	0	456	39	7	
5	0	0	0	0	507	512	0	454	39	7	
6	0	0	0	0	504	515	0	460	39	7	
7	0	0	0	0	504	520	0	455	39	7	
8	0	0	0	0	508	524	0	457	38	7	
9	0	0	0	0	506	528	0	458	39	7	
10	0	0	0	0	513	540	0	455	39	7	
11	0	0	0	0	507	556	1	464	38	7	
12	0	0	0	0	506	567	0	469	39	7	
13	0	0	0	0	503	580	0	473	38	7	
14	0	0	0	0	507	596	0	475	39	7	
15	0	0	0	0	508	612	0	467	39	7	
0	0	0	0	0	513	630	0	468	38	8	
1	0	0	0	0	504	643	0	469	39	7	
2	0	0	0	0	506	655	0	472	39	7	
3	0	0	0	0	511	670	0	475	38	7	
4	0	0	0	0	512	685	0	471	39	7	
5	0	0	0	0	505	699	0	474	38	7	
6	0	0	0	0	501	711	0	474	39	7	
7	0	0	0	0	512	725	0	471	39	7	
8	0	0	0	0	507	736	0	471	39	7	
9	0	0	0	0	512	742	0	467	39	8	
10	0	0	0	0	504	748	0	475	38	7	
11	0	0	0	0	499	747	0	477	38	7	
12	0	0	0	0	508	744	0	479	39	7	
13	0	0	0	0	506	742	0	483	39	7	
14	0	0	0	0	511	735	0	479	39	7	
15	0	0	0	0	504	728	2	478	39	7	
0	0	0	0	0	504	719	0	475	39	7	
1	0	0	0	0	505	702	0	477	39	7	
2	0	0	0	0	503	687	0	481	39	7	
3	0	0	0	0	513	667	0	503	38	7	
4	0	0	0	0	505	648	0	526	38	7	
5	0	0	0	0	511	630	0	540	39	7	
6	0	0	0	0	505	611	0	562	39	7	
7	0	0	0	0	511	593	0	563	39	7	
8	0	0	0	0	511	572	0	573	38	8	
9	0	0	0	0	511	550	0	577	39	8	
10	0	0	0	0	511	528	0	574	39	8	
11	0	0	0	0	508	502	0	585	38	7	
12	0	0	0	0	512	477	0	583	39	7	
13	0	0	0	0	505	454	0	587	38	7	
14	0	0	0	0	498	432	0	581	39	7	
15	0	0	0	0	511	414	0	571	39	7	
0	0	0	0	0	504	399	0	577	39	7	
1	0	0	0	0	505	382	0	568	39	7	
2	0	0	0	0	505	371	0	572	38	8	
3	0	0	0	0	510	364	0	575	38	7	
4	0	0	0	0	514	359	0	572	38	7	
5	0	0	0	0	504	353	0	578	39	7	
6	0	0	0	0	508	348	0	565	39	7	
7	0	0	0	0	505	348	0	565	39	7	
8	0	0	0	0	503	352	0	563	38	7	
9	0	0	0	0	508	352	0	557	39	7	
10	0	0	0	0	514	356	0	548	38	7	
11	0	0	0	0	507	360	0	534	38	7	
12	0	0	0	0	502	364	0	519	39	7	
13	0	0	0	0	507	368	0	511	38	7	
14	0	0	0	0	505	375	0	499	39	7	
15	0	0	0	0	504	384	0	492	39	7	
0	0	0	0	0	508	391	0	486	38	7	
1	0	0	0	0	510	398	0	477	39	7	
2	0	0	0	0	511	409	0	478	38	8	
3	0	0	0	0	503	416	0	479	38	7	
4	0	0	0	0	507	422	0	480	39	7	
5	0	0	0	0	509	431	0	481	39	7	
6	0	0	0	0	513	442	0	475	39	7	
7	0	0	0	0	510	447	0	474	39	7	
8	0	0	0	0	508	451	0	472	39	7	
9	0	0	0	0	505	452	0	479	39	7	
10	0	0	0	0	509	451	0	479	39	7	
11	0	0	0	0	513	454	0	476	38	8	
12	0	0	0	0	506	460	0	479	38	7	
13	0	0	0	0	504	465	0	480	39	7	
14	0	0	0	0	506	470	0	483	38	7	
15	0	0	0	0	502	472	0	482	39	7	
0	0	0	0	0	513	473	0	474	39	7	
1	0	0	0	0	510	476	0	478	38	7	
2	0	0	0	0	508	479	0	479	39	7	
3	0	0	0	0	503	483	0	480	38	7	
4	0	0	0	0	504	486	0	481	39	7	
5	0	0	0	0	508	486	0	480	39	7	
6	0	0	0	0	503	487	0	511	39	7	
7	0	0	0	0	504	491	0	519	39	7	
8	0	0	0	0	503	495	0	525	38	7	
9	0	0	0	0	504	499	0	541	39	7	
10	0	0	0	0	519	502	0	547	39	7	
11	0	0	0	0	508	503	0	552	38	8	
12	0	0	0	0	501	501	0	565	39	7	
13	0	0	0	0	511	503	0	564	38	7	
14	0	0	0	0	509	505	0	569	39	7	
15	0	0	0	0	513	506	0	560	39	7	
0	0	0	0	0	510	504	0	557	38	7	
1	0	0	0	0	502	503	0	565	39	7	
2	0	0	0	0	499	504	0	563	38	7	
3	0	0	0	0	509	506	0	571	38	7	
4	0	0	0	0	507	509	0	573	39	8	
5	0	0	0	0	511	508	0	577	38	7	
6	0	0	0	0	511	508	0	573	39	7	
7	0	0	0	0	512	509	0	560	39	7	
8	0	0	0	0	506	510	0	549	38	7	
9	0	0	0	0	513	506	0	532	38	7	
10	0	0	0	0	503	502	0	520	38	8	
11	0	0	0	0	507	500	0	508	38	7	
12	0	0	0	0	503	501	0	502	38	8	
13	0	0	0	0	503	508	0	494	39	7	
14	0	0	0	0	509	510	0	488	39	7	
15	0	0	0	0	505	506	1	485	39	7	
0	0	0	0	0	500	505	0	480	39	7	
1	0	0	0	0	507	506	0	478	39	7	
2	0	0	0	0	501	508	0	477	39	7	
3	0	0	0	0	508	509	0	479	38	7	
4	0	0	0	0	512	511	0	482	38	8	
5	0	0	0	0	509	513	0	482	39	7	
6	0	0	0	0	501	511	0	482	39	7	
7	0	0	0	0	507	513	0	480	39	7	
8	0	0	0	0	508	515	0	473	39	7	
9	0	0	0	0	511	520	0	477	38	7	
10	0	0	0	0	511	524	0	478	39	7	
11	0	0	0	0	505	524	0	479	38	7	
12	0	0	0	0	499	522	0	482	39	8	
13	0	0	0	0	509	519	0	480	39	8	
14	0	0	0	0	512	520	0	486	38	7	
15	0	0	0	0	510	517	0	482	39	7	
0	0	0	0	0	510	518	0	480	39	7	
1	0	0	0	0	508	519	0	479	39	7	
2	0	0	0	0	515	518	0	478	39	7	
3	0	0	0	0	512	519	0	483	38	8	
4	0	0	0	0	512	517	0	493	39	8	
5	0	0	0	0	502	515	0	520	38	8	
6	0	0	0	0	503	518	0	529	39	8	
7	0	0	0	0	505	520	0	545	39	7	
8	0	0	0	0	506	519	0	554	38	7	
9	0	0	0	0	509	520	0	556	38	7	
10	0	0	0	0	506	521	0	570	39	7	
11	0	0	0	0	508	522	0	568	38	7	
12	0	0	0	0	510	524	0	571	38	8	
13	0	0	0	0	508	527	0	574	38	8	
14	0	0	0	0	507	528	0	569	39	8	
15	0	0	0	0	504	527	0	571	39	7	
0	0	0	0	0	506	525	0	558	39	7	
1	0	0	0	0	508	527	0	549	39	7	
2	0	0	0	0	510	528	0	536	39	7	
3	0	0	0	0	505	527	0	519	38	7	
4	0	0	0	0	509	528	0	509	39	7	
5	0	0	0	0	515	529	0	499	39	8	
6	0	0	0	0	511	528	0	492	39	8	
7	0	0	0	0	497	530	0	488	39	7	
8	0	0	0	0	507	532	0	481	39	7	
9	0	0	0	0	504	532	0	480	39	7	
10	0	0	0	0	507	532	0	481	38	7	
11	0	0	0	0	512	532	0	490	38	7	
12	0	0	0	0	513	536	0	480	38	8	
13	0	0	0	0	511	537	0	479	39	7	
14	0	0	0	0	506	540	0	478	38	8	
15	0	0	0	0	503	540	0	474	39	7	
0	0	0	0	0	512	540	0	466	39	7	
1	0	0	0	0	507	538	0	470	39	7	
2	0	0	0	0	504	537	0	472	39	7	
3	0	0	0	0	508	539	0	475	38	7	
4	0	0	0	0	503	540	0	477	39	7	
5	0	0	0	0	513	543	0	476	39	7	
6	0	0	0	0	509	546	0	479	39	8	
7	0	0	0	0	510	546	0	475	39	7	
8	0	0	0	0	505	548	0	473	39	7	
9	0	0	0	0	507	547	0	475	39	7	
10	0	0	0	0	503	547	0	472	39	7	
11	0	0	0	0	507	549	0	489	38	7	
12	0	0	0	0	503	550	0	479	39	7	
13	0	0	0	0	506	549	0	487	38	7	
14	0	0	0	0	510	548	0	508	38	8	
15	0	0	0	0	513	547	0	519	39	8	
0	0	0	0	0	510	547	0	531	39	7	
1	0	0	0	0	507	547	0	549	39	7	
2	0	0	0	0	509	548	0	553	39	7	
3	0	0	0	0	508	547	0	564	38	7	
4	0	0	0	0	511	548	0	563	39	7	
5	0	0	0	0	501	556	0	563	38	7	
6	0	0	0	0	495	559	0	569	39	8	
7	0	0	0	0	507	558	0	561	39	8	
8	0	0	0	0	509	559	0	565	38	7	
9	0	0	0	0	513	561	0	560	39	7	
10	0	0	0	0	512	562	0	566	39	7	
11	0	0	0	0	509	558	0	545	38	7	
12	0	0	0	0	505	558	0	524	39	7	
13	0	0	0	0	507	563	0	510	39	7	
14	0	0	0	0	508	565	0	496	39	7	
15	0	0	0	0	503	567	0	487	39	8	
0	0	0	0	0	509	569	0	477	39	8	
1	0	0	0	0	508	572	0	471	39	7	
2	0	0	0	0	505	572	0	470	39	7	
3	0	0	0	0	507	575	0	465	38	7	
4	0	0	0	0	506	578	0	470	38	7	
5	0	0	0	0	511	578	0	470	39	7	
6	0	0	0	0	505	579	0	470	38	7	
7	0	0	0	0	504	578	0	468	39	7	
8	0	0	0	0	510	580	0	474	39	8	
9	0	0	0	0	501	583	0	467	38	7	
10	0	0	0	0	512	583	0	465	39	7	
11	0	0	0	0	505	583	0	465	38	7	
12	0	0	0	0	503	584	2	468	39	7	
13	0	0	0	0	515	586	0	464	39	7	
14	0	0	0	0	497	588	0	468	39	8	
15	0	0	0	0	506	592	0	463	39	7	
0	0	0	0	0	504	596	0	464	38	8	
1	0	0	0	0	507	600	2	467	39	7	
2	0	0	0	0	508	602	0	464	39	7	
3	0	0	0	0	508	606	0	472	38	7	
4	0	0	0	0	512	608	0	473	39	7	
5	0	0	0	0	508	608	0	475	38	7	
6	0	0	0	0	512	606	0	479	39	7	
7	0	0	0	0	511	604	0	498	39	8	
8	0	0	0	0	506	604	0	511	38	8	
9	0	0	0	0	507	604	0	521	39	8	
10	0	0	0	0	500	605	0	544	38	7	
11	0	0	0	0	508	606	0	549	38	7	
12	0	0	0	0	512	604	0	559	38	7	
13	0	0	0	0	502	607	0	561	38	7	
14	0	0	0	0	510	608	0	557	39	7	
15	0	0	0	0	499	608	0	566	39	7	
0	0	0	0	0	505	609	0	560	39	8	
1	0	0	0	0	514	608	0	564	38	8	
2	0	0	0	0	508	606	0	563	38	7	
3	0	0	0	0	508	601	0	556	38	7	
4	0	0	0	0	504	599	0	550	39	7	
5	0	0	0	0	505	598	0	558	38	7	
6	0	0	0	0	515	596	0	553	39	7	
7	0	0	0	0	505	596	0	547	39	8	
8	0	0	0	0	510	595	0	534	39	7	
9	0	0	0	0	507	597	0	523	39	8	
10	0	0	0	0	505	601	0	509	38	8	
11	0	0	0	0	514	600	0	498	38	7	
12	0	0	0	0	504	597	0	495	38	7	
13	0	0	0	0	507	598	0	488	39	7	
14	0	0	0	0	504	597	0	487	39	7	
15	0	0	0	0	507	589	0	481	39	7	
0	0	0	0	0	511	583	0	476	39	7	
1	0	0	0	0	506	583	0	480	38	8	
2	0	0	0	0	502	580	0	482	39	7	
3	0	0	0	0	501	579	0	483	38	7	
4	0	0	0	0	509	576	0	484	39	7	
5	0	0	0	0	512	572	0	494	39	7	
6	0	0	0	0	507	570	0	485	38	7	
7	0	0	0	0	505	567	0	481	39	7	
8	0	0	0	0	507	563	0	478	38	7	
9	0	0	0	0	505	556	0	479	39	7	
10	0	0	0	0	512	552	0	477	39	8	
11	0	0	0	0	510	551	0	482	38	7	
12	0	0	0	0	505	547	0	484	39	7	
13	0	0	0	0	505	547	0	488	39	7	
14	0	0	0	0	501	546	0	488	39	7	
15	0	0	0	0	511	544	0	482	39	7	
0	0	0	0	0	504	544	0	483	38	7	
1	0	0	0	0	498	542	0	486	39	7	
2	0	0	0	0	509	540	0	488	39	8	
3	0	0	0	0	512	538	0	492	38	7	
4	0	0	0	0	504	536	0	517	39	7	
5	0	0	0	0	505	532	0	538	39	7	
6	0	0	0	0	512	527	0	548	39	7	
7	0	0	0	0	506	519	0	566	39	7	
8	0	0	0	0	511	511	0	561	39	7	
9	0	0	0	0	516	508	0	550	39	7	
10	0	0	0	0	508	508	0	551	38	8	
11	0	0	0	0	499	510	0	562	38	8	
12	0	0	0	0	502	508	0	561	39	7	
13	0	0	0	0	512	504	0	571	38	7	
14	0	0	0	0	510	503	0	572	39	7	
15	0	0	0	0	498	504	0	572	39	7	
0	0	0	0	0	508	506	0	578	39	7	
1	0	0	0	0	506	504	0	569	39	7	
2	0	0	0	0	504	502	0	576	39	7	
3	0	0	0	0	514	497	0	573	38	8	
4	0	0	0	0	505	493	0	575	39	7	
5	0	0	0	0	503	488	0	580	39	7	
6	0	0	0	0	508	486	0	571	38	7	
7	0	0	0	0	512	485	0	575	39	7	
8	0	0	0	0	510	481	0	574	39	7	
9	0	0	0	0	507	476	0	569	38	7	
10	0	0	0	0	509	476	0	556	39	7	
11	0	0	0	0	508	474	0	542	38	8	
12	0	0	0	0	499	471	0	525	39	7	
13	0	0	0	0	511	462	0	514	39	7	
14	0	0	0	0	515	461	0	508	38	7	
15	0	0	0	0	505	462	0	501	39	7	
0	0	0	0	0	501	460	0	496	39	7	
1	0	0	0	0	503	459	0	490	39	7	
2	0	0	0	0	508	461	0	500	39	7	
3	0	0	0	0	514	463	0	492	38	8	
4	0	0	0	0	510	460	0	491	39	8	
5	0	0	0	0	506	457	0	493	39	7	
6	0	0	0	0	508	451	0	492	39	7	
7	0	0	0	0	511	447	0	489	39	7	
8	0	0	0	0	507	446	0	489	38	7	
9	0	0	0	0	512	446	0	488	39	7	
10	0	0	0	0	507	448	0	491	39	7	
11	0	0	0	0	503	447	0	492	38	8	
12	0	0	0	0	507	443	0	491	39	8	
13	0	0	0	0	503	440	0	493	38	7	
14	0	0	0	0	501	439	0	493	39	7	
15	0	0	0	0	506	438	0	491	39	7	
0	0	0	0	0	497	437	0	489	38	7	
1	0	0	0	0	519	437	0	487	39	7	
2	0	0	0	0	512	440	0	489	38	7	
3	0	0	0	0	511	440	0	490	38	7	
4	0	0	0	0	500	441	0	495	39	8	
5	0	0	0	0	505	439	0	494	39	7	
6	0	0	0	0	516	438	0	492	39	7	
7	0	0	0	0	505	439	0	490	39	7	
8	0	0	0	0	502	438	0	487	39	7	
9	0	0	0	0	505	440	0	489	39	7	
10	0	0	0	0	510	440	0	491	39	7	
11	0	0	0	0	513	436	0	493	38	7	
12	0	0	0	0	512	435	0	497	38	8	
13	0	0	0	0	504	433	0	499	39	7	
14	0	0	0	0	509	434	0	503	39	7	
15	0	0	0	0	506	433	0	509	39	7	
0	0	0	0	0	512	432	0	495	39	7	
1	0	0	0	0	511	434	0	497	38	7	
2	0	0	0	0	504	435	0	496	39	7	
3	0	0	0	0	511	438	0	501	38	7	
4	0	0	0	0	504	438	0	500	39	8	
5	0	0	0	0	508	435	0	502	39	8	
6	0	0	0	0	503	432	0	501	39	8	
7	0	0	0	0	502	431	0	497	39	7	
8	0	0	0	0	507	432	0	497	39	7	
9	0	0	0	0	508	430	0	495	39	7	
10	0	0	0	0	510	427	0	496	39	7	
11	0	0	0	0	509	428	0	499	38	7	
12	0	0	0	0	508	431	0	502	39	7	
13	0	0	0	0	508	436	0	507	39	8	
14	0	0	0	0	505	441	0	505	39	8	
15	0	0	0	0	500	443	0	502	39	7	
0	0	0	0	0	510	442	0	502	38	7	
1	0	0	0	0	505	441	0	502	39	7	
2	0	0	0	0	500	441	0	505	38	7	
3	0	0	0	0	509	440	0	505	38	7	
4	0	0	0	0	508	442	0	505	39	7	
5	0	0	0	0	505	444	0	509	38	8	
6	0	0	0	0	506	446	0	505	39	8	
7	0	0	0	0	508	449	0	502	39	7	
8	0	0	0	0	504	451	0	499	39	7	
9	0	0	0	0	514	450	0	519	38	7	
10	0	0	0	0	505	448	0	540	38	7	
11	0	0	0	0	509	447	0	553	38	7	
12	0	0	0	0	510	446	0	578	39	7	
13	0	0	0	0	507	446	0	582	39	8	
14	0	0	0	0	505	446	0	591	38	8	
15	0	0	0	0	505	449	0	590	39	8	
0	0	0	0	0	510	450	0	583	39	7	
1	0	0	0	0	507	451	0	591	39	7	
2	0	0	0	0	508	449	0	583	39	7	
3	0	0	0	0	505	446	0	586	38	7	
4	0	0	0	0	510	445	0	601	38	8	
5	0	0	0	0	509	446	0	588	39	8	
6	0	0	0	0	503	447	0	593	39	8	
7	0	0	0	0	511	451	0	581	39	8	
8	0	0	0	0	510	452	0	583	39	7	
9	0	0	0	0	508	454	0	586	38	7	
10	0	0	0	0	511	454	0	582	39	7	
11	0	0	0	0	500	454	0	588	38	7	
12	0	0	0	0	502	455	0	576	39	7	
13	0	0	0	0	512	456	0	575	38	8	
14	0	0	0	0	512	455	0	568	39	8	
15	0	0	0	0	508	454	0	558	39	8	
0	0	0	0	0	498	452	0	566	39	7	
1	0	0	0	0	507	452	0	559	39	7	
2	0	0	0	0	507	455	0	565	39	7	
3	0	0	0	0	508	459	0	572	38	7	
4	0	0	0	0	515	462	0	569	39	7	
5	0	0	0	0	496	463	0	575	39	7	
6	0	0	0	0	510	464	0	564	39	8	
7	0	0	0	0	507	466	0	563	39	8	
8	0	0	0	0	506	466	0	559	38	8	
9	0	0	0	0	503	468	0	554	39	7	
10	0	0	0	0	513	465	0	546	38	7	
11	0	0	0	0	510	461	0	531	38	7	
12	0	0	0	0	508	461	0	516	38	7	
13	0	0	0	0	502	465	0	509	38	7	
14	0	0	0	0	510	465	0	499	39	7	
15	0	0	0	0	505	467	0	493	39	8	
0	0	0	0	0	512	467	0	487	39	7	
1	0	0	0	0	510	465	0	478	39	7	
2	0	0	0	0	507	466	0	479	38	7	
3	0	0	0	0	509	467	0	480	38	7	
4	0	0	0	0	512	468	0	485	39	7	
5	0	0	0	0	508	470	0	484	39	7	
6	0	0	0	0	512	472	0	479	39	7	
7	0	0	0	0	498	472	2	476	39	8	
8	0	0	0	0	503	473	0	473	39	8	
9	0	0	0	0	509	476	0	475	39	7	
10	0	0	0	0	503	477	0	476	38	7	
11	0	0	0	0	503	474	0	476	38	7	
12	0	0	0	0	506	472	0	482	38	7	
13	0	0	0	0	509	470	0	484	39	7	
14	0	0	0	0	510	469	0	487	39	7	
15	0	0	0	0	506	470	0	485	39	7	
0	0	0	0	0	512	469	0	480	39	8	
1	0	0	0	0	510	469	0	483	38	7	
2	0	0	0	0	507	466	0	485	39	7	
3	0	0	0	0	512	464	0	492	38	7	
4	0	0	0	0	503	465	0	488	39	7	
5	0	0	0	0	508	464	0	487	39	7	
6	0	0	0	0	507	467	0	505	39	7	
7	0	0	0	0	506	471	0	526	39	7	
8	0	0	0	0	507	473	0	535	39	8	
9	0	0	0	0	500	472	0	555	38	7	
10	0	0	0	0	509	476	0	561	38	7	
11	0	0	0	0	510	478	0	568	38	7	
12	0	0	0	0	504	477	0	580	39	7	
13	0	0	0	0	513	477	0	578	38	7	
14	0	0	0	0	512	477	0	584	39	7	
15	0	0	0	0	512	478	0	575	39	7	
0	0	0	0	0	509	475	0	570	39	8	
1	0	0	0	0	501	471	0	576	39	8	
2	0	0	0	0	503	470	0	571	38	7	
3	0	0	0	0	503	471	0	563	38	7	
4	0	0	0	0	513	471	0	547	39	7	
5	0	0	0	0	502	473	0	535	39	7	
6	0	0	0	0	513	474	0	521	39	7	
7	0	0	0	0	511	476	0	512	39	7	
8	0	0	0	0	511	476	0	505	39	7	
9	0	0	0	0	507	472	0	494	39	8	
10	0	0	0	0	502	472	0	494	38	7	
11	0	0	0	0	507	468	0	492	38	7	
12	0	0	0	0	507	467	0	493	39	7	
13	0	0	0	0	504	468	0	491	39	7	
14	0	0	0	0	511	469	0	490	39	7	
15	0	0	0	0	507	472	0	487	39	7	
0	0	0	0	0	507	473	0	483	39	7	
1	0	0	0	0	508	473	0	483	38	7	
2	0	0	0	0	508	472	0	485	38	7	
3	0	0	0	0	508	473	0	484	38	7	
4	0	0	0	0	507	473	0	488	38	7	
5	0	0	0	0	512	471	0	489	39	7	
6	0	0	0	0	509	472	0	494	38	7	
7	0	0	0	0	508	474	0	490	39	7	
8	0	0	0	0	510	473	0	484	39	7	
9	0	0	0	0	504	480	0	494	38	8	
10	0	0	0	0	503	484	0	491	39	8	
11	0	0	0	0	512	487	0	495	38	7	
12	0	0	0	0	500	487	0	495	39	7	
13	0	0	0	0	507	486	0	495	39	7	
14	0	0	0	0	511	485	0	495	39	7	
15	0	0	0	0	510	484	0	501	39	7	
0	0	0	0	0	504	481	0	525	39	7	
1	0	0	0	0	515	483	0	535	39	7	
2	0	0	0	0	509	484	0	556	38	8	
3	0	0	0	0	506	484	0	569	38	7	
4	0	0	0	0	517	486	0	573	39	7	
5	0	0	0	0	504	485	0	587	39	7	
6	0	0	0	0	504	484	0	582	39	7	
7	0	0	0	0	508	483	0	585	39	7	
8	0	0	0	0	505	482	0	582	39	7	
9	0	0	0	0	510	481	0	577	38	7	
10	0	0	0	0	501	482	0	588	39	7	
11	0	0	0	0	508	485	0	582	38	7	
12	0	0	0	0	504	487	0	590	39	7	
13	0	0	0	0	501	488	0	579	39	7	
14	0	0	0	0	502	487	0	584	39	7	
15	0	0	0	0	505	487	0	575	39	7	
0	0	0	0	0	512	490	0	566	39	7	
1	0	0	0	0	511	492	0	551	38	7	
2	0	0	0	0	515	496	0	539	38	8	
3	0	0	0	0	499	499	0	526	38	8	
4	0	0	0	0	504	497	0	519	39	7	
5	0	0	0	0	507	496	0	511	39	7	
6	0	0	0	0	511	494	0	504	39	7	
7	0	0	0	0	502	491	0	502	39	7	
8	0	0	0	0	499	489	0	496	39	7	
9	0	0	0	0	510	490	0	497	39	7	
10	0	0	0	0	513	487	0	495	39	7	
11	0	0	0	0	514	487	0	496	38	8	
12	0	0	0	0	501	491	0	500	38	7	
13	0	0	0	0	505	490	0	499	39	7	
14	0	0	0	0	503	491	0	502	39	7	
15	0	0	0	0	503	492	0	496	39	7	
0	0	0	0	0	507	491	0	495	39	7	
1	0	0	0	0	504	496	0	497	38	7	
2	0	0	0	0	506	497	0	495	39	7	
3	0	0	0	0	510	497	0	499	38	7	
4	0	0	0	0	512	497	0	500	39	7	
5	0	0	0	0	511	494	0	502	39	7	
6	0	0	0	0	507	491	0	504	38	7	
7	0	0	0	0	507	490	0	501	39	7	
8	0	0	0	0	499	493	0	499	39	7	
9	0	0	0	0	515	492	0	496	39	7	
10	0	0	0	0	514	494	0	496	39	7	
11	0	0	0	0	506	496	0	500	38	8	
12	0	0	0	0	507	498	0	510	39	8	
13	0	0	0	0	503	501	0	537	39	7	
14	0	0	0	0	505	503	0	546	39	7	
15	0	0	0	0	508	505	0	562	39	7	
0	0	0	0	0	502	507	0	573	39	7	
1	0	0	0	0	511	512	0	575	38	7	
2	0	0	0	0	510	514	0	587	39	7	
3	0	0	0	0	511	510	0	581	38	7	
4	0	0	0	0	504	509	0	598	39	8	
5	0	0	0	0	505	510	0	591	38	7	
6	0	0	0	0	506	512	0	585	39	7	
7	0	0	0	0	500	512	0	588	39	7	
8	0	0	0	0	502	508	0	574	39	7	
9	0	0	0	0	511	505	0	563	38	7	
10	0	0	0	0	504	505	0	548	38	7	
11	0	0	0	0	506	502	0	533	38	7	
12	0	0	0	0	510	502	0	522	39	7	
13	0	0	0	0	508	501	0	512	39	7	
14	0	0	0	0	512	496	0	503	39	7	
15	0	0	0	0	504	497	0	498	39	7	
0	0	0	0	0	511	498	0	490	39	7	
1	0	0	0	0	512	496	0	488	39	7	
2	0	0	0	0	503	496	0	485	39	7	
3	0	0	0	0	507	495	0	481	38	7	
4	0	0	0	0	505	497	0	484	38	8	
5	0	0	0	0	510	493	0	501	39	8	
6	0	0	0	0	503	494	0	487	39	7	
7	0	0	0	0	504	497	0	484	39	7	
8	0	0	0	0	512	500	0	478	39	7	
9	0	0	0	0	508	506	0	483	38	7	
10	0	0	0	0	508	512	0	482	39	7	
11	0	0	0	0	509	512	0	483	38	7	
12	0	0	0	0	501	510	0	483	38	7	
13	0	0	0	0	513	510	0	481	39	8	
14	0	0	0	0	504	513	0	483	38	8	
15	0	0	0	0	501	513	0	477	39	7	
0	0	0	0	0	510	508	0	476	39	7	
1	0	0	0	0	500	505	0	477	39	7	
2	0	0	0	0	517	500	0	472	39	7	
3	0	0	0	0	512	496	0	477	38	7	
4	0	0	0	0	510	496	0	480	39	7	
5	0	0	0	0	504	492	0	492	39	8	
6	0	0	0	0	507	492	0	513	39	8	
7	0	0	0	0	512	493	0	523	39	7	
8	0	0	0	0	510	494	0	534	39	7	
9	0	0	0	0	507	495	0	551	39	7	
10	0	0	0	0	510	497	0	555	38	7	
11	0	0	0	0	509	494	0	568	38	7	
12	0	0	0	0	507	497	0	569	39	7	
13	0	0	0	0	508	497	0	571	38	8	
14	0	0	0	0	504	494	0	579	39	8	
15	0	0	0	0	508	494	0	572	39	7	
0	0	0	0	0	510	490	0	577	38	7	
1	0	0	0	0	510	489	0	574	39	7	
2	0	0	0	0	505	489	0	568	38	7	
3	0	0	0	0	504	487	0	553	38	7	
4	0	0	0	0	504	489	0	538	39	7	
5	0	0	0	0	507	490	0	523	38	8	
6	0	0	0	0	508	487	0	511	39	8	
7	0	0	0	0	505	486	0	504	39	7	
8	0	0	0	0	503	489	0	495	39	7	
9	0	0	0	0	504	489	0	492	39	7	
10	0	0	0	0	515	491	0	488	39	7	
11	0	0	0	0	511	492	0	484	38	7	
12	0	0	0	0	509	494	0	486	38	7	
13	0	0	0	0	501	494	0	484	39	7	
14	0	0	0	0	498	492	0	485	38	8	
15	0	0	0	0	505	489	0	483	39	7	
0	0	0	0	0	512	491	0	475	39	7	
1	0	0	0	0	511	494	0	479	38	7	
2	0	0	0	0	510	496	0	479	39	7	
3	0	0	0	0	503	496	0	481	38	7	
4	0	0	0	0	503	492	0	482	38	7	
5	0	0	0	0	512	487	0	481	39	7	
6	0	0	0	0	505	487	0	483	38	8	
7	0	0	0	0	508	486	0	479	39	8	
8	0	0	0	0	496	488	0	477	38	7	
9	0	0	0	0	511	492	0	482	38	7	
10	0	0	0	0	514	495	0	477	39	7	
11	0	0	0	0	514	495	0	480	38	7	
12	0	0	0	0	513	491	0	481	39	7	
13	0	0	0	0	504	487	0	484	39	7	
14	0	0	0	0	503	487	0	485	39	8	
15	0	0	0	0	507	487	0	500	39	8	
0	0	0	0	0	508	491	0	513	38	8	
1	0	0	0	0	510	492	0	524	38	7	
2	0	0	0	0	510	490	0	547	39	7	
3	0	0	0	0	508	491	0	551	38	7	
4	0	0	0	0	504	488	0	562	38	7	
5	0	0	0	0	504	489	0	565	38	7	
6	0	0	0	0	510	493	0	563	39	7	
7	0	0	0	0	511	497	0	572	39	7	
8	0	0	0	0	510	498	0	565	39	8	
9	0	0	0	0	508	496	0	568	38	7	
10	0	0	0	0	504	496	0	566	39	7	
11	0	0	0	0	511	490	0	558	38	7	
12	0	0	0	0	514	492	0	551	38	7	
13	0	0	0	0	506	496	0	563	38	7	
14	0	0	0	0	509	494	0	555	39	7	
15	0	0	0	0	505	493	0	546	39	8	
0	0	0	0	0	504	492	0	531	39	8	
1	0	0	0	0	501	488	0	517	39	7	
2	0	0	0	0	509	487	0	505	39	7	
3	0	0	0	0	512	489	0	492	38	7	
4	0	0	0	0	512	488	0	490	38	7	
5	0	0	0	0	504	483	0	483	39	7	
6	0	0	0	0	500	483	0	480	39	7	
7	0	0	0	0	505	482	0	479	39	7	
8	0	0	0	0	511	484	0	472	39	8	
9	0	0	0	0	505	491	0	475	38	8	
10	0	0	0	0	507	495	0	472	39	7	
11	0	0	0	0	504	503	0	473	38	7	
12	0	0	0	0	500	513	0	476	39	7	
13	0	0	0	0	513	527	0	471	39	7	
14	0	0	0	0	508	542	0	474	38	7	
15	0	0	0	0	509	551	0	470	39	7	
0	0	0	0	0	502	564	0	468	38	8	
1	0	0	0	0	508	579	0	472	39	8	
2	0	0	0	0	508	592	0	469	39	7	
3	0	0	0	0	511	602	0	473	38	7	
4	0	0	0	0	513	613	0	475	39	7	
5	0	0	0	0	501	624	0	477	39	7	
6	0	0	0	0	503	634	0	478	39	7	
7	0	0	0	0	508	648	0	470	39	7	
8	0	0	0	0	509	660	0	472	38	8	
9	0	0	0	0	499	671	0	472	39	8	
10	0	0	0	0	497	684	0	476	39	7	
11	0	0	0	0	508	694	0	479	38	7	
12	0	0	0	0	511	701	0	477	39	7	
13	0	0	0	0	515	709	0	480	38	7	
14	0	0	0	0	503	714	0	482	39	7	
15	0	0	0	0	504	719	0	480	39	7	
0	0	0	0	0	506	721	0	478	39	7	
1	0	0	0	0	506	714	0	471	39	8	
2	0	0	0	0	511	706	0	476	38	8	
3	0	0	0	0	509	698	0	477	38	7	
4	0	0	0	0	507	685	0	477	39	7	
5	0	0	0	0	508	670	0	478	39	7	
6	0	0	0	0	512	650	0	473	39	7	
7	0	0	0	0	512	627	0	475	39	7	
8	0	0	0	0	506	613	0	472	39	7	
9	0	0	0	0	511	601	0	475	38	8	
10	0	0	0	0	502	585	0	480	39	8	
11	0	0	0	0	500	564	0	500	38	7	
12	0	0	0	0	506	540	0	531	38	7	
13	0	0	0	0	504	524	0	540	39	7	
14	0	0	0	0	502	504	0	557	39	7	
15	0	0	0	0	508	484	0	553	39	7	
0	0	0	0	0	511	471	0	559	39	7	
1	0	0	0	0	509	455	0	567	39	8	
2	0	0	0	0	506	435	0	567	39	8	
3	0	0	0	0	501	416	0	575	38	7	
4	0	0	0	0	512	397	0	568	39	7	
5	0	0	0	0	508	384	0	570	38	7	
6	0	0	0	0	505	374	0	568	38	7	
7	0	0	0	0	512	370	0	559	39	7	
8	0	0	0	0	503	368	0	567	38	7	
9	0	0	0	0	502	363	0	560	39	7	
10	0	0	0	0	511	365	0	564	38	8	
11	0	0	0	0	512	367	0	563	38	8	
12	0	0	0	0	507	367	0	557	39	7	
13	0	0	0	0	505	370	0	552	39	7	
14	0	0	0	0	505	371	0	556	39	7	
15	0	0	0	0	506	372	0	551	39	7	
0	0	0	0	0	505	377	0	544	38	7	
1	0	0	0	0	507	384	0	533	39	7	
2	0	0	0	0	506	390	0	530	39	8	
3	0	0	0	0	503	397	0	514	38	8	
4	0	0	0	0	507	398	0	504	39	7	
5	0	0	0	0	509	400	0	499	39	7	
6	0	0	0	0	513	405	0	493	39	7	
7	0	0	0	0	511	412	0	490	39	7	
8	0	0	0	0	513	420	0	485	39	7	
9	0	0	0	0	507	427	0	477	39	7	
10	0	0	0	0	507	436	0	478	38	8	
11	0	0	0	0	508	446	0	478	38	8	
12	0	0	0	0	507	456	0	480	39	7	
13	0	0	0	0	510	461	0	480	39	7	
14	0	0	0	0	508	463	0	472	39	7	
15	0	0	0	0	498	463	0	472	39	7	
0	0	0	0	0	502	464	0	466	39	7	
1	0	0	0	0	502	469	0	468	39	7	
2	0	0	0	0	503	472	0	471	39	7	
3	0	0	0	0	513	479	0	468	38	8	
4	0	0	0	0	515	486	0	473	38	8	
5	0	0	0	0	508	488	0	474	39	7	
6	0	0	0	0	502	485	0	476	38	7	
7	0	0	0	0	510	483	0	476	39	7	
8	0	0	0	0	513	481	0	468	39	7	
9	0	0	0	0	505	481	0	473	38	7	
10	0	0	0	0	510	478	0	475	39	7	
11	0	0	0	0	507	479	0	477	38	8	
12	0	0	0	0	507	480	0	481	39	8	
13	0	0	0	0	508	484	0	499	38	7	
14	0	0	0	0	509	486	0	517	39	7	
15	0	0	0	0	518	489	0	526	39	7	
0	0	0	0	0	497	496	0	546	39	7	
1	0	0	0	0	504	498	0	549	39	7	
2	0	0	0	0	501	497	0	561	39	7	
3	0	0	0	0	508	497	0	569	38	8	
4	0	0	0	0	507	494	0	568	38	8	
5	0	0	0	0	504	494	0	576	39	7	
6	0	0	0	0	512	490	0	563	39	7	
7	0	0	0	0	510	490	0	566	39	7	
8	0	0	0	0	508	491	0	566	39	7	
9	0	0	0	0	507	492	0	560	39	7	
10	0	0	0	0	511	496	0	551	39	7	
11	0	0	0	0	511	505	0	536	38	8	
12	0	0	0	0	511	508	0	537	38	8	
13	0	0	0	0	509	512	0	515	38	8	
14	0	0	0	0	500	514	0	504	39	7	
15	0	0	0	0	504	512	0	496	39	7	
0	0	0	0	0	505	510	0	489	38	7	
1	0	0	0	0	511	508	0	480	39	7	
2	0	0	0	0	507	512	0	481	38	7	
3	0	0	0	0	500	510	0	482	38	7	
4	0	0	0	0	507	509	0	483	39	8	
5	0	0	0	0	502	507	0	486	39	8	
6	0	0	0	0	514	503	0	483	39	7	
7	0	0	0	0	505	506	0	482	39	7	
8	0	0	0	0	514	505	0	480	39	7	
9	0	0	0	0	508	507	0	481	38	7	
10	0	0	0	0	507	509	0	484	39	7	
11	0	0	0	0	508	504	0	486	38	7	
12	0	0	0	0	508	505	0	491	38	8	
13	0	0	0	0	508	504	0	493	39	8	
14	0	0	0	0	506	503	0	498	38	7	
15	0	0	0	0	509	503	0	495	39	7	
0	0	0	0	0	509	500	0	491	39	7	
1	0	0	0	0	508	499	0	495	38	7	
2	0	0	0	0	507	496	0	494	38	7	
3	0	0	0	0	506	492	0	498	38	7	
4	0	0	0	0	512	491	0	497	38	8	
5	0	0	0	0	504	492	0	499	38	8	
6	0	0	0	0	501	498	0	516	38	8	
7	0	0	0	0	508	505	0	536	39	7	
8	0	0	0	0	503	509	0	544	38	7	
9	0	0	0	0	507	509	0	564	38	7	
10	0	0	0	0	512	510	0	569	39	7	
11	0	0	0	0	511	512	0	593	38	7	
12	0	0	0	0	507	516	0	588	39	7	
13	0	0	0	0	504	519	0	584	39	8	
14	0	0	0	0	498	515	0	590	39	8	
15	0	0	0	0	505	516	0	583	39	7	
0	0	0	0	0	507	519	0	576	39	7	
1	0	0	0	0	503	526	0	583	39	7	
2	0	0	0	0	513	529	0	579	38	7	
3	0	0	0	0	509	527	0	571	38	7	
4	0	0	0	0	512	524	0	555	39	7	
5	0	0	0	0	508	521	0	540	39	8	
6	0	0	0	0	512	521	0	525	39	8	
7	0	0	0	0	510	524	0	516	39	7	
8	0	0	0	0	501	526	0	504	39	7	
9	0	0	0	0	512	523	0	496	39	7	
10	0	0	0	0	504	522	0	496	38	7	
11	0	0	0	0	501	521	0	494	38	7	
12	0	0	0	0	510	524	0	498	39	7	
13	0	0	0	0	506	524	0	496	39	8	
14	0	0	0	0	510	518	0	493	39	8	
15	0	0	0	0	504	520	0	490	39	8	
0	0	0	0	0	510	520	0	487	39	7	
1	0	0	0	0	519	522	0	488	39	7	
2	0	0	0	0	500	524	0	491	39	7	
3	0	0	0	0	512	526	0	490	38	7	
4	0	0	0	0	500	530	0	492	38	7	
5	0	0	0	0	508	532	0	492	39	7	
6	0	0	0	0	509	534	0	496	39	8	
7	0	0	0	0	502	533	0	493	39	8	
8	0	0	0	0	518	530	0	485	39	7	
9	0	0	0	0	507	529	0	486	38	7	
10	0	0	0	0	509	529	0	488	39	7	
11	0	0	0	0	503	528	0	494	38	7	
12	0	0	0	0	500	528	0	493	39	7	
13	0	0	0	0	511	532	0	493	39	7	
14	0	0	0	0	510	535	0	496	39	8	
15	0	0	0	0	509	534	0	498	39	8	
0	0	0	0	0	503	535	0	519	38	8	
1	0	0	0	0	508	533	0	529	38	7	
2	0	0	0	0	499	531	0	547	38	7	
3	0	0	0	0	509	531	0	560	38	7	
4	0	0	0	0	506	535	0	563	38	7	
5	0	0	0	0	499	538	0	577	39	7	
6	0	0	0	0	510	540	0	572	39	8	
7	0	0	0	0	507	540	0	576	39	8	
8	0	0	0	0	511	538	0	575	38	8	
9	0	0	0	0	508	533	0	571	39	7	
10	0	0	0	0	506	532	0	581	39	7	
11	0	0	0	0	508	539	0	575	38	7	
12	0	0	0	0	510	545	0	566	39	7	
13	0	0	0	0	505	549	0	551	39	8	
14	0	0	0	0	509	547	0	536	39	8	
15	0	0	0	0	506	545	0	524	39	8	
0	0	0	0	0	507	547	0	514	39	8	
1	0	0	0	0	511	548	0	502	39	7	
2	0	0	0	0	510	548	0	497	38	7	
3	0	0	0	0	502	553	0	491	38	7	
4	0	0	0	0	509	561	0	488	38	7	
5	0	0	0	0	508	564	0	485	39	7	
6	0	0	0	0	507	563	0	479	39	8	
7	0	0	0	0	502	568	0	478	39	8	
8	0	0	0	0	505	569	0	477	39	8	
9	0	0	0	0	512	568	0	477	38	8	
10	0	0	0	0	504	568	0	477	38	7	
11	0	0	0	0	509	568	0	477	38	7	
12	0	0	0	0	513	571	0	483	38	7	
13	0	0	0	0	508	574	0	486	39	7	
14	0	0	0	0	511	574	0	487	38	8	
15	0	0	0	0	517	575	0	485	39	8	
0	0	0	0	0	507	575	0	479	39	8	
1	0	0	0	0	507	580	0	482	38	8	
2	0	0	0	0	509	584	0	481	39	7	
3	0	0	0	0	504	581	0	483	38	7	
4	0	0	0	0	514	577	0	488	38	7	
5	0	0	0	0	511	575	0	482	39	7	
6	0	0	0	0	506	576	0	481	38	8	
7	0	0	0	0	510	575	0	477	39	7	
8	0	0	0	0	508	577	0	481	38	8	
9	0	0	0	0	507	579	0	505	39	8	
10	0	0	0	0	513	586	0	521	39	7	
11	0	0	0	0	504	591	0	539	38	7	
12	0	0	0	0	504	591	0	556	39	7	
13	0	0	0	0	505	594	0	557	39	7	
14	0	0	0	0	506	600	0	566	38	7	
15	0	0	0	0	510	606	0	566	39	8	
0	0	0	0	0	511	605	0	565	39	8	
1	0	0	0	0	502	606	0	570	39	8	
2	0	0	0	0	502	608	0	562	39	8	
3	0	0	0	0	501	604	0	570	38	7	
4	0	0	0	0	513	602	0	571	39	7	
5	0	0	0	0	511	600	0	570	38	7	
6	0	0	0	0	502	598	0	573	39	7	
7	0	0	0	0	511	596	0	558	39	7	
8	0	0	0	0	504	595	0	548	38	8	
9	0	0	0	0	512	595	0	532	38	8	
10	0	0	0	0	513	596	0	519	38	8	
11	0	0	0	0	514	595	0	505	38	7	
12	0	0	0	0	504	589	0	499	38	7	
13	0	0	0	0	500	585	0	489	39	7	
14	0	0	0	0	507	581	0	482	39	7	
15	0	0	0	0	507	579	0	479	39	7	
0	0	0	0	0	507	577	0	474	39	7	
1	0	0	0	0	509	577	0	474	39	8	
2	0	0	0	0	504	575	0	476	39	8	
3	0	0	0	0	506	574	0	473	38	7	
4	0	0	0	0	511	576	0	478	38	7	
5	0	0	0	0	513	574	0	482	39	7	
6	0	0	0	0	499	572	0	482	39	7	
7	0	0	0	0	501	568	0	479	39	7	
8	0	0	0	0	512	563	0	472	39	7	
9	0	0	0	0	507	560	0	476	38	8	
10	0	0	0	0	507	557	0	478	39	8	
11	0	0	0	0	509	557	0	479	38	8	
12	0	0	0	0	498	554	0	480	39	7	
13	0	0	0	0	510	552	0	479	39	7	
14	0	0	0	0	507	556	0	483	38	7	
15	0	0	0	0	505	554	0	479	39	7	
0	0	0	0	0	502	551	0	478	39	7	
1	0	0	0	0	504	543	0	478	38	8	
2	0	0	0	0	512	539	0	476	39	8	
3	0	0	0	0	512	540	0	484	38	8	
4	0	0	0	0	509	539	0	494	39	7	
5	0	0	0	0	509	537	0	519	39	7	
6	0	0	0	0	504	535	0	527	39	7	
7	0	0	0	0	511	535	0	545	39	7	
8	0	0	0	0	510	533	0	555	38	8	
9	0	0	0	0	507	528	0	558	38	8	
10	0	0	0	0	502	521	0	570	39	8	
11	0	0	0	0	509	515	0	565	38	8	
12	0	0	0	0	503	512	0	571	39	7	
13	0	0	0	0	508	508	0	576	38	7	
14	0	0	0	0	509	508	0	573	39	7	
15	0	0	0	0	505	510	0	576	39	7	
0	0	0	0	0	506	507	0	568	39	7	
1	0	0	0	0	515	504	0	555	38	7	
2	0	0	0	0	514	504	0	539	38	8	
3	0	0	0	0	510	500	0	521	38	8	
4	0	0	0	0	507	491	0	510	39	7	
5	0	0	0	0	499	482	0	500	38	7	
6	0	0	0	0	509	473	0	493	39	7	
7	0	0	0	0	507	468	0	487	39	7	
8	0	0	0	0	512	463	0	479	39	7	
9	0	0	0	0	509	465	0	479	39	7	
10	0	0	0	0	505	467	0	478	39	7	
11	0	0	0	0	510	472	0	475	38	8	
12	0	0	0	0	508	475	0	480	38	8	
13	0	0	0	0	511	476	0	489	39	7	
14	0	0	0	0	506	475	0	483	38	7	
15	0	0	0	0	504	468	0	479	39	7	
0	0	0	0	0	513	464	0	473	39	7	
1	0	0	0	0	505	461	0	479	38	7	
2	0	0	0	0	503	457	0	480	39	7	
3	0	0	0	0	502	454	0	482	38	8	
4	0	0	0	0	507	452	0	484	39	8	
5	0	0	0	0	510	451	0	485	39	7	
6	0	0	0	0	511	452	0	487	38	7	
7	0	0	0	0	509	452	0	484	39	7	
8	0	0	0	0	502	454	0	482	39	7	
9	0	0	0	0	507	452	0	499	39	7	
10	0	0	0	0	512	450	0	482	39	7	
11	0	0	0	0	502	450	0	485	38	8	
12	0	0	0	0	505	446	0	486	39	8	
13	0	0	0	0	501	447	0	490	38	8	
14	0	0	0	0	511	448	0	491	39	7	
15	0	0	0	0	507	444	0	506	39	7	
0	0	0	0	0	502	441	0	521	38	7	
1	0	0	0	0	507	439	0	532	39	7	
2	0	0	0	0	508	445	0	556	39	7	
3	0	0	0	0	510	446	0	560	38	8	
4	0	0	0	0	506	446	0	572	39	8	
5	0	0	0	0	502	443	0	574	39	8	
6	0	0	0	0	513	441	0	569	39	7	
7	0	0	0	0	508	441	0	576	39	7	
8	0	0	0	0	514	445	0	570	39	7	
9	0	0	0	0	505	444	0	575	38	7	
10	0	0	0	0	511	439	0	574	38	7	
11	0	0	0	0	504	437	0	568	38	7	
12	0	0	0	0	509	438	0	561	39	8	
13	0	0	0	0	503	435	0	570	38	8	
14	0	0	0	0	510	434	0	567	39	7	
15	0	0	0	0	503	435	0	560	39	7	
0	0	0	0	0	511	435	0	565	39	7	
1	0	0	0	0	509	435	0	538	38	7	
2	0	0	0	0	507	435	0	523	38	7	
3	0	0	0	0	501	438	0	509	38	7	
4	0	0	0	0	512	438	0	505	39	8	
5	0	0	0	0	504	440	0	499	39	8	
6	0	0	0	0	506	433	0	499	39	8	
7	0	0	0	0	506	428	0	492	39	7	
8	0	0	0	0	511	425	0	485	39	7	
9	0	0	0	0	510	432	0	487	38	7	
10	0	0	0	0	511	440	0	488	39	7	
11	0	0	0	0	510	449	0	491	38	7	
12	0	0	0	0	505	452	0	493	38	8	
13	0	0	0	0	511	454	0	494	39	8	
14	0	0	0	0	508	447	0	499	38	8	
15	0	0	0	0	506	447	0	494	39	7	
0	0	0	0	0	506	448	0	492	38	7	
1	0	0	0	0	501	448	0	491	39	7	
2	0	0	0	0	503	448	0	492	39	7	
3	0	0	0	0	503	449	0	496	38	7	
4	0	0	0	0	510	452	0	498	39	7	
5	0	0	0	0	511	451	0	502	38	8	
6	0	0	0	0	507	452	0	516	39	8	
7	0	0	0	0	511	458	0	498	39	7	
8	0	0	0	0	507	463	0	495	38	7	
9	0	0	0	0	510	462	0	494	39	7	
10	0	0	0	0	503	460	0	498	38	7	
11	0	0	0	0	509	449	0	497	38	7	
12	0	0	0	0	508	444	0	499	39	7	
13	0	0	0	0	506	448	0	502	38	8	
14	0	0	0	0	507	451	0	500	39	8	
15	0	0	0	0	506	458	0	499	39	8	
0	0	0	0	0	502	459	0	496	39	7	
1	0	0	0	0	514	459	0	494	39	7	
2	0	0	0	0	512	464	0	512	38	7	
3	0	0	0	0	506	463	0	541	38	7	
4	0	0	0	0	504	463	0	556	38	7	
5	0	0	0	0	513	460	0	575	38	7	
6	0	0	0	0	517	463	0	574	39	8	
7	0	0	0	0	504	464	0	574	39	8	
8	0	0	0	0	508	462	0	583	39	7	
9	0	0	0	0	508	461	0	580	38	7	
10	0	0	0	0	510	465	0	590	38	7	
11	0	0	0	0	512	464	0	583	38	7	
12	0	0	0	0	503	466	0	582	38	7	
13	0	0	0	0	506	461	0	587	39	7	
14	0	0	0	0	513	460	0	579	39	8	
15	0	0	0	0	503	457	0	591	39	8	
0	0	0	0	0	516	459	0	579	39	7	
1	0	0	0	0	501	464	0	570	38	7	
2	0	0	0	0	502	469	0	556	39	7	
3	0	0	0	0	508	469	0	542	38	7	
4	0	0	0	0	514	473	0	528	38	7	
5	0	0	0	0	507	477	0	517	39	7	
6	0	0	0	0	502	477	0	509	39	8	
7	0	0	0	0	499	471	0	499	39	8	
8	0	0	0	0	503	465	0	494	38	8	
9	0	0	0	0	505	464	0	488	39	7	
10	0	0	0	0	513	462	0	485	39	7	
11	0	0	0	0	508	464	0	487	38	7	
12	0	0	0	0	504	466	0	489	39	7	
13	0	0	0	0	505	467	0	492	38	7	
14	0	0	0	0	504	468	0	493	38	8	
15	0	0	0	0	510	473	0	488	39	8	
0	0	0	0	0	511	480	0	486	38	8	
1	0	0	0	0	510	478	0	486	39	7	
2	0	0	0	0	508	480	0	489	39	7	
3	0	0	0	0	503	480	0	492	38	7	
4	0	0	0	0	505	483	0	492	39	7	
5	0	0	0	0	508	485	0	493	38	7	
6	0	0	0	0	508	487	0	493	39	7	
7	0	0	0	0	517	485	0	491	39	8	
8	0	0	0	0	506	482	0	489	39	8	
9	0	0	0	0	505	476	0	483	39	7	
10	0	0	0	0	504	473	0	497	38	7	
11	0	0	0	0	507	473	0	490	38	7	
12	0	0	0	0	507	469	0	491	39	7	
13	0	0	0	0	497	468	0	493	39	7	
14	0	0	0	0	506	468	0	511	39	8	
15	0	0	0	0	499	472	0	526	39	8	
0	0	0	0	0	510	473	0	536	39	8	
1	0	0	0	0	515	467	0	560	39	8	
2	0	0	0	0	510	464	0	566	39	7	
3	0	0	0	0	515	467	0	576	38	7	
4	0	0	0	0	505	472	0	579	39	7	
5	0	0	0	0	509	477	0	575	39	7	
6	0	0	0	0	502	482	0	582	39	7	
7	0	0	0	0	505	487	0	571	39	8	
8	0	0	0	0	515	484	0	575	39	8	
9	0	0	0	0	505	481	0	576	38	8	
10	0	0	0	0	510	478	0	572	39	7	
11	0	0	0	0	504	478	0	559	38	7	
12	0	0	0	0	503	483	0	541	38	7	
13	0	0	0	0	508	487	0	526	38	7	
14	0	0	0	0	507	486	0	515	38	8	
15	0	0	0	0	508	481	0	503	39	7	
0	0	0	0	0	507	483	0	495	39	8	
1	0	0	0	0	495	480	0	486	38	8	
2	0	0	0	0	511	477	0	480	39	7	
3	0	0	0	0	500	470	0	482	38	7	
4	0	0	0	0	505	466	0	483	39	7	
5	0	0	0	0	509	468	0	485	38	7	
6	0	0	0	0	514	472	0	485	39	7	
7	0	0	0	0	515	478	0	484	39	8	
8	0	0	0	0	504	484	0	479	38	8	
9	0	0	0	0	515	487	0	479	39	8	
10	0	0	0	0	507	489	0	478	39	8	
11	0	0	0	0	512	487	0	478	38	7	
12	0	0	0	0	505	484	0	476	39	7	
13	0	0	0	0	503	488	0	479	38	7	
14	0	0	0	0	502	494	0	477	39	7	
15	0	0	0	0	499	490	0	474	39	7	
0	0	0	0	0	512	483	0	472	39	8	
1	0	0	0	0	512	480	0	466	39	8	
2	0	0	0	0	505	483	0	472	38	8	
3	0	0	0	0	508	485	0	474	38	7	
4	0	0	0	0	511	484	0	477	38	7	
5	0	0	0	0	510	484	0	479	39	7	
6	0	0	0	0	506	482	0	472	39	7	
7	0	0	0	0	504	479	0	473	39	7	
8	0	0	0	0	509	476	0	470	39	7	
9	0	0	0	0	501	476	0	472	39	8	
10	0	0	0	0	506	475	0	474	38	8	
11	0	0	0	0	509	477	0	471	38	7	
12	0	0	0	0	504	480	0	475	38	7	
13	0	0	0	0	511	487	0	477	39	7	
14	0	0	0	0	511	494	0	477	38	7	
15	0	0	0	0	511	497	0	491	39	7	
0	0	0	0	0	504	503	0	495	38	8	
1	0	0	0	0	512	507	0	513	38	8	
2	0	0	0	0	510	499	0	523	39	8	
3	0	0	0	0	502	489	0	545	38	7	
4	0	0	0	0	504	486	0	550	39	7	
5	0	0	0	0	507	487	0	559	38	7	
6	0	0	0	0	506	491	0	557	39	7	
7	0	0	0	0	507	493	0	550	39	7	
8	0	0	0	0	504	497	0	557	39	7	
9	0	0	0	0	509	504	0	550	39	8	
10	0	0	0	0	500	511	0	554	39	8	
11	0	0	0	0	499	505	0	557	38	8	
12	0	0	0	0	513	500	0	555	38	7	
13	0	0	0	0	508	492	0	563	39	7	
14	0	0	0	0	514	487	0	551	39	7	
15	0	0	0	0	506	487	0	551	39	7	
0	0	0	0	0	511	486	0	551	38	7	
1	0	0	0	0	502	479	0	546	39	7	
2	0	0	0	0	514	480	0	539	39	8	
3	0	0	0	0	508	487	0	523	38	8	
4	0	0	0	0	503	492	0	509	39	7	
5	0	0	0	0	507	497	0	502	38	7	
6	0	0	0	0	502	501	0	492	39	7	
7	0	0	0	0	505	504	0	486	39	7	
8	0	0	0	0	507	510	0	481	39	7	
9	0	0	0	0	508	513	0	472	39	7	
10	0	0	0	0	510	518	0	473	38	8	
11	0	0	0	0	511	519	0	475	38	8	
12	0	0	0	0	511	519	0	476	38	8	
13	0	0	0	0	498	517	0	476	39	7	
14	0	0	0	0	515	510	0	468	39	7	
15	0	0	0	0	506	505	0	467	39	7	
0	0	0	0	0	511	502	0	465	39	7	
1	0	0	0	0	504	495	0	468	38	7	
2	0	0	0	0	504	487	0	472	39	7	
3	0	0	0	0	504	480	0	469	38	8	
4	0	0	0	0	507	483	0	474	38	8	
5	0	0	0	0	516	483	0	476	39	7	
6	0	0	0	0	504	487	0	478	38	7	
7	0	0	0	0	505	493	0	479	39	7	
8	0	0	0	0	515	498	0	471	39	7	
9	0	0	0	0	512	499	0	476	38	7	
10	0	0	0	0	507	498	0	481	39	7	
11	0	0	0	0	500	502	0	481	38	8	
12	0	0	0	0	505	508	0	482	39	8	
13	0	0	0	0	510	509	0	481	39	7	
14	0	0	0	0	505	513	0	499	39	7	
15	0	0	0	0	506	519	0	519	39	7	
0	0	0	0	0	507	516	0	527	39	7	
1	0	0	0	0	499	505	0	546	39	7	
2	0	0	0	0	514	503	0	553	39	7	
3	0	0	0	0	511	505	0	560	38	8	
4	0	0	0	0	510	504	0	572	39	8	
5	0	0	0	0	507	500	0	570	39	8	
6	0	0	0	0	509	500	0	577	38	7	
7	0	0	0	0	505	502	0	570	39	7	
8	0	0	0	0	501	501	0	566	39	7	
9	0	0	0	0	499	507	0	576	39	7	
10	0	0	0	0	512	510	0	572	38	7	
11	0	0	0	0	501	509	0	564	38	8	
12	0	0	0	0	513	502	0	547	39	8	
13	0	0	0	0	507	501	0	533	38	8	
14	0	0	0	0	508	504	0	518	39	7	
15	0	0	0	0	509	503	0	508	39	7	
0	0	0	0	0	500	506	0	497	39	7	
1	0	0	0	0	505	508	0	488	39	7	
2	0	0	0	0	511	515	0	488	38	7	
3	0	0	0	0	504	520	0	488	38	7	
4	0	0	0	0	505	515	0	489	38	8	
5	0	0	0	0	508	514	0	493	39	8	
6	0	0	0	0	516	511	0	487	39	7	
7	0	0	0	0	515	513	0	486	39	7	
8	0	0	0	0	499	507	0	481	39	7	
9	0	0	0	0	507	508	0	483	39	7	
10	0	0	0	0	504	508	0	487	38	7	
11	0	0	0	0	512	500	0	490	38	7	
12	0	0	0	0	507	493	0	495	38	8	
13	0	0	0	0	504	484	0	497	39	8	
14	0	0	0	0	505	482	0	502	39	7	
15	0	0	0	0	506	485	0	498	39	7	
0	0	0	0	0	514	486	0	496	39	7	
1	0	0	0	0	512	491	0	499	38	7	
2	0	0	0	0	504	489	0	500	39	7	
3	0	0	0	0	506	484	0	506	38	7	
4	0	0	0	0	504	482	0	505	39	7	
5	0	0	0	0	512	485	0	506	39	8	
6	0	0	0	0	508	483	0	507	39	8	
7	0	0	0	0	510	480	0	514	39	7	
8	0	0	0	0	504	481	0	538	39	7	
9	0	0	0	0	506	480	0	547	39	7	
10	0	0	0	0	500	483	0	566	38	7	
11	0	0	0	0	511	486	0	580	38	7	
12	0	0	0	0	510	486	0	585	39	7	
13	0	0	0	0	498	485	0	600	39	8	
14	0	0	0	0	507	483	0	594	39	8	
15	0	0	0	0	504	484	0	599	39	8	
0	0	0	0	0	504	483	0	597	38	7	
1	0	0	0	0	509	483	0	593	38	7	
2	0	0	0	0	505	485	0	600	39	7	
3	0	0	0	0	506	486	0	592	38	7	
4	0	0	0	0	510	484	0	584	39	7	
5	0	0	0	0	496	486	0	583	39	7	
6	0	0	0	0	508	493	0	589	39	8	
7	0	0	0	0	508	497	0	580	39	7	
8	0	0	0	0	512	498	0	574	39	7	
9	0	0	0	0	515	496	0	558	39	7	
10	0	0	0	0	505	500	0	544	38	7	
11	0	0	0	0	503	499	0	532	38	7	
12	0	0	0	0	505	499	0	527	39	7	
13	0	0	0	0	510	499	0	516	39	7	
14	0	0	0	0	506	496	0	511	39	8	
15	0	0	0	0	515	495	0	507	39	8	
0	0	0	0	0	514	496	0	502	39	7	
1	0	0	0	0	505	493	0	501	39	7	
2	0	0	0	0	504	492	0	499	39	7	
3	0	0	0	0	508	494	0	497	38	7	
4	0	0	0	0	509	497	0	499	38	7	
5	0	0	0	0	501	493	0	499	39	7	
6	0	0	0	0	508	492	0	500	39	8	
7	0	0	0	0	507	500	0	493	39	8	
8	0	0	0	0	513	502	0	488	39	7	
9	0	0	0	0	503	499	0	490	38	7	
10	0	0	0	0	509	500	0	492	39	7	
11	0	0	0	0	503	494	0	494	38	7	
12	0	0	0	0	506	492	0	493	39	7	
13	0	0	0	0	508	490	0	495	39	7	
14	0	0	0	0	507	488	0	494	38	8	
15	0	0	0	0	504	486	0	491	39	8	
0	0	0	0	0	508	488	0	497	39	7	
1	0	0	0	0	504	488	0	490	39	7	
2	0	0	0	0	511	484	0	491	39	7	
3	0	0	0	0	506	485	0	497	38	7	
4	0	0	0	0	509	489	0	506	38	7	
5	0	0	0	0	501	492	0	534	39	7	
6	0	0	0	0	508	491	0	542	39	7	
7	0	0	0	0	512	491	0	561	39	8	
8	0	0	0	0	509	486	0	572	38	8	
9	0	0	0	0	510	487	0	577	39	7	
10	0	0	0	0	499	492	0	591	39	7	
11	0	0	0	0	510	497	0	585	38	7	
12	0	0	0	0	508	501	0	590	39	7	
13	0	0	0	0	509	510	0	608	39	7	
14	0	0	0	0	505	515	0	592	39	7	
15	0	0	0	0	504	522	0	595	39	8	
0	0	0	0	0	510	531	0	583	39	8	
1	0	0	0	0	508	544	0	575	39	7	
2	0	0	0	0	506	551	0	561	38	7	
3	0	0	0	0	508	559	0	545	38	7	
4	0	0	0	0	509	576	0	532	39	7	
5	0	0	0	0	501	595	0	522	39	7	
6	0	0	0	0	510	602	0	513	39	7	
7	0	0	0	0	508	600	0	506	39	8	
8	0	0	0	0	511	610	0	497	39	8	
9	0	0	0	0	500	627	0	504	39	7	
10	0	0	0	0	503	645	0	494	38	7	
11	0	0	0	0	507	663	0	492	38	7	
12	0	0	0	0	508	677	0	494	38	7	
13	0	0	0	0	509	688	0	495	39	7	
14	0	0	0	0	502	704	0	499	38	7	
15	0	0	0	0	501	712	0	493	39	7	
0	0	0	0	0	512	716	0	488	39	8	
1	0	0	0	0	509	718	0	489	38	8	
2	0	0	0	0	506	713	0	490	39	7	
3	0	0	0	0	504	706	0	493	38	7	
4	0	0	0	0	507	701	0	496	38	7	
5	0	0	0	0	516	696	0	495	39	7	
6	0	0	0	0	505	689	0	492	39	7	
7	0	0	0	0	508	685	0	489	39	7	
8	0	0	0	0	503	674	0	488	39	8	
9	0	0	0	0	508	657	0	487	39	8	
10	0	0	0	0	505	637	0	487	39	7	
11	0	0	0	0	510	622	0	491	38	7	
12	0	0	0	0	513	606	0	493	39	7	
13	0	0	0	0	513	583	0	498	39	7	
14	0	0	0	0	511	563	0	496	39	7	
15	0	0	0	0	508	544	0	492	39	7	
0	0	0	0	0	499	531	0	492	38	8	
1	0	0	0	0	506	513	0	499	39	8	
2	0	0	0	0	514	494	0	496	38	7	
3	0	0	0	0	510	475	0	497	38	7	
4	0	0	0	0	510	459	0	495	39	7	
5	0	0	0	0	508	444	0	496	38	7	
6	0	0	0	0	503	427	0	494	39	7	
7	0	0	0	0	506	412	0	492	39	7	
8	0	0	0	0	505	397	0	490	39	7	
9	0	0	0	0	512	389	0	487	39	8	
10	0	0	0	0	507	385	0	490	38	8	
11	0	0	0	0	510	386	0	493	38	7	
12	0	0	0	0	504	384	0	497	38	7	
13	0	0	0	0	500	382	0	497	39	7	
14	0	0	0	0	504	381	0	495	39	7	
15	0	0	0	0	503	376	0	495	39	7	
0	0	0	0	0	509	376	0	490	39	7	
1	0	0	0	0	511	376	0	490	38	8	
2	0	0	0	0	503	383	0	492	39	8	
3	0	0	0	0	512	391	0	514	38	8	
4	0	0	0	0	510	400	1	534	38	7	
5	0	0	0	0	509	407	0	545	38	7	
6	0	0	0	0	502	415	0	564	39	7	
7	0	0	0	0	506	427	0	564	39	7	
8	0	0	0	0	505	436	0	570	38	8	
9	0	0	0	0	506	438	0	572	38	8	
10	0	0	0	0	516	435	0	570	39	8	
11	0	0	0	0	502	435	0	583	38	7	
12	0	0	0	0	507	440	0	579	39	7	
13	0	0	0	0	507	444	0	581	38	7	
14	0	0	0	0	508	451	0	575	39	7	
15	0	0	0	0	510	456	0	565	39	7	
0	0	0	0	0	503	455	0	571	39	7	
1	0	0	0	0	501	455	0	562	39	7	
2	0	0	0	0	510	464	0	566	39	8	
3	0	0	0	0	514	471	0	568	38	8	
4	0	0	0	0	514	472	0	566	39	7	
5	0	0	0	0	504	471	0	574	39	7	
6	0	0	0	0	511	468	0	561	39	7	
7	0	0	0	0	501	467	0	562	39	7	
8	0	0	0	0	508	471	0	559	38	7	
9	0	0	0	0	504	474	0	569	39	7	
10	0	0	0	0	506	476	0	545	39	7	
11	0	0	0	0	502	477	0	529	38	8	
12	0	0	0	0	513	481	0	511	39	7	
13	0	0	0	0	503	483	0	500	38	7	
14	0	0	0	0	506	478	0	490	39	7	
15	0	0	0	0	510	476	0	486	39	7	
0	0	0	0	0	509	478	0	481	39	7	
1	0	0	0	0	511	477	0	473	39	7	
2	0	0	0	0	510	476	0	473	38	8	
3	0	0	0	0	507	482	0	472	38	8	
4	0	0	0	0	503	494	0	474	39	7	
5	0	0	0	0	510	500	0	478	39	7	
6	0	0	0	0	508	502	0	495	39	7	
7	0	0	0	0	502	502	0	512	39	7	
8	0	0	0	0	508	498	0	522	39	7	
9	0	0	0	0	502	503	0	542	38	7	
10	0	0	0	0	499	503	0	551	39	7	
11	0	0	0	0	508	493	0	544	38	8	
12	0	0	0	0	514	485	0	534	38	8	
13	0	0	0	0	508	480	0	519	39	7	
14	0	0	0	0	506	483	0	507	39	7	
15	0	0	0	0	509	482	0	498	39	7	
0	0	0	0	0	509	487	0	488	39	7	
1	0	0	0	0	501	495	0	485	38	7	
2	0	0	0	0	499	499	0	478	39	7	
3	0	0	0	0	510	500	0	475	38	7	
4	0	0	0	0	509	498	0	473	39	8	
5	0	0	0	0	513	498	0	467	39	7	
6	0	0	0	0	501	500	0	470	39	7	
7	0	0	0	0	512	494	0	468	39	7	
8	0	0	0	0	508	492	0	466	39	7	
9	0	0	0	0	502	496	0	465	39	7	
10	0	0	0	0	508	495	0	474	39	7	
11	0	0	0	0	503	497	0	469	38	8	
12	0	0	0	0	506	501	0	470	39	8	
13	0	0	0	0	509	507	0	472	38	7	
14	0	0	0	0	505	506	0	474	39	7	
15	0	0	0	0	513	505	0	468	39	7	
0	0	0	0	0	511	509	0	472	38	7	
1	0	0	0	0	504	512	0	473	39	7	
2	0	0	0	0	510	517	0	474	38	7	
3	0	0	0	0	504	512	0	477	38	7	
4	0	0	0	0	512	507	0	475	39	8	
5	0	0	0	0	500	502	0	478	39	8	
6	0	0	0	0	510	498	0	477	39	7	
7	0	0	0	0	501	495	0	475	39	7	
8	0	0	0	0	503	490	0	477	39	7	
9	0	0	0	0	514	492	0	483	39	7	
10	0	0	0	0	507	496	0	493	39	7	
11	0	0	0	0	506	503	0	521	38	7	
12	0	0	0	0	504	507	0	532	39	7	
13	0	0	0	0	504	505	0	550	39	8	
14	0	0	0	0	513	505	0	550	39	7	
15	0	0	0	0	509	505	0	550	39	7	
0	0	0	0	0	507	504	0	557	39	7	
1	0	0	0	0	505	507	0	555	39	7	
2	0	0	0	0	509	513	0	564	38	7	
3	0	0	0	0	518	520	0	559	38	7	
4	0	0	0	0	501	527	0	559	39	7	
5	0	0	0	0	504	525	0	567	39	8	
6	0	0	0	0	500	526	0	562	39	8	
7	0	0	0	0	513	529	0	566	39	7	
8	0	0	0	0	515	531	0	559	38	7	
9	0	0	0	0	500	531	0	552	38	7	
10	0	0	0	0	501	529	0	538	39	7	
11	0	0	0	0	511	529	0	526	38	7	
12	0	0	0	0	510	529	0	510	39	7	
13	0	0	0	0	502	529	0	496	39	8	
14	0	0	0	0	503	527	0	489	39	8	
15	0	0	0	0	502	530	0	490	39	7	
0	0	0	0	0	503	533	0	508	39	7	
1	0	0	0	0	513	521	0	515	39	7	
2	0	0	0	0	508	515	0	523	39	7	
3	0	0	0	0	510	513	0	522	38	7	
4	0	0	0	0	501	515	0	515	39	7	
5	0	0	0	0	505	522	0	508	39	7	
6	0	0	0	0	508	523	0	498	39	8	
7	0	0	0	0	511	522	0	493	39	7	
8	0	0	0	0	508	522	0	489	38	7	
9	0	0	0	0	515	517	0	485	39	7	
10	0	0	0	0	504	518	0	484	38	7	
11	0	0	0	0	503	517	0	484	38	7	
12	0	0	0	0	508	516	0	481	39	7	
13	0	0	0	0	507	517	0	482	38	8	
14	0	0	0	0	507	515	0	481	39	8	
15	0	0	0	0	503	512	0	477	39	7	
0	0	0	0	0	504	512	0	476	39	7	
1	0	0	0	0	508	516	0	473	39	7	
2	0	0	0	0	512	522	0	478	38	7	
3	0	0	0	0	500	528	0	479	38	7	
4	0	0	0	0	509	537	0	482	38	7	
5	0	0	0	0	506	541	0	485	38	7	
6	0	0	0	0	515	543	0	486	39	8	
7	0	0	0	0	501	553	0	487	39	8	
8	0	0	0	0	515	550	0	484	39	7	
9	0	0	0	0	508	545	0	484	38	7	
10	0	0	0	0	509	546	0	486	39	7	
11	0	0	0	0	511	546	0	487	38	7	
12	0	0	0	0	509	545	0	491	38	7	
13	0	0	0	0	504	538	0	491	39	7	
14	0	0	0	0	510	536	0	503	39	8	
15	0	0	0	0	507	533	0	519	39	8	
0	0	0	0	0	507	535	0	528	39	7	
1	0	0	0	0	507	540	0	540	38	7	
2	0	0	0	0	499	541	0	557	39	7	
3	0	0	0	0	506	539	0	560	38	7	
4	0	0	0	0	500	538	0	573	38	7	
5	0	0	0	0	515	540	0	572	39	7	
6	0	0	0	0	508	540	0	572	39	7	
7	0	0	0	0	506	544	0	577	39	8	
8	0	0	0	0	503	547	0	568	39	7	
9	0	0	0	0	512	555	0	574	39	7	
10	0	0	0	0	513	565	0	570	39	7	
11	0	0	0	0	505	571	0	564	38	7	
12	0	0	0	0	504	573	0	552	39	7	
13	0	0	0	0	504	573	0	543	38	7	
14	0	0	0	0	504	572	0	527	38	7	
15	0	0	0	0	514	566	0	515	39	8	
0	0	0	0	0	509	570	0	506	38	8	
1	0	0	0	0	504	575	0	498	39	7	
2	0	0	0	0	505	574	0	496	39	7	
3	0	0	0	0	501	572	0	491	38	7	
4	0	0	0	0	512	572	0	488	39	7	
5	0	0	0	0	509	574	0	491	38	7	
6	0	0	0	0	512	574	0	487	39	7	
7	0	0	0	0	505	579	0	483	39	7	
8	0	0	0	0	508	577	0	481	39	8	
9	0	0	0	0	512	577	0	485	39	7	
10	0	0	0	0	510	578	0	480	38	7	
11	0	0	0	0	502	577	0	480	38	7	
12	0	0	0	0	511	576	0	484	39	7	
13	0	0	0	0	504	575	0	487	39	7	
14	0	0	0	0	516	573	0	484	39	7	
15	0	0	0	0	503	576	0	483	39	8	
0	0	0	0	0	504	581	0	479	39	8	
1	0	0	0	0	505	586	0	482	39	7	
2	0	0	0	0	513	588	0	484	39	7	
3	0	0	0	0	506	587	0	485	38	7	
4	0	0	0	0	504	590	0	489	38	7	
5	0	0	0	0	505	592	0	494	39	7	
6	0	0	0	0	510	593	0	495	39	7	
7	0	0	0	0	506	594	0	493	39	7	
8	0	0	0	0	505	594	0	510	39	8	
9	0	0	0	0	509	599	0	531	38	8	
10	0	0	0	0	515	606	0	546	39	7	
11	0	0	0	0	497	608	0	564	38	7	
12	0	0	0	0	508	610	0	563	39	7	
13	0	0	0	0	509	601	0	572	39	7	
14	0	0	0	0	510	592	0	574	39	7	
15	0	0	0	0	508	586	0	568	39	7	
0	0	0	0	0	503	582	0	578	39	7	
1	0	0	0	0	507	580	0	572	39	8	
2	0	0	0	0	501	576	0	577	38	8	
3	0	0	0	0	509	572	0	582	38	7	
4	0	0	0	0	513	568	0	574	39	7	
5	0	0	0	0	511	569	0	566	38	7	
6	0	0	0	0	509	569	0	572	39	7	
7	0	0	0	0	507	568	0	568	39	7	
8	0	0	0	0	499	564	0	561	38	8	
9	0	0	0	0	508	557	0	548	39	8	
10	0	0	0	0	509	558	0	536	38	7	
11	0	0	0	0	504	563	0	524	38	7	
12	0	0	0	0	505	560	0	514	38	7	
13	0	0	0	0	499	559	0	518	38	7	
14	0	0	0	0	511	556	0	517	39	7	
15	0	0	0	0	516	552	0	531	39	7	
0	0	0	0	0	506	547	0	543	39	7	
1	0	0	0	0	505	545	0	551	39	8	
2	0	0	0	0	497	543	0	554	38	8	
3	0	0	0	0	510	541	0	548	38	7	
4	0	0	0	0	502	540	0	537	39	7	
5	0	0	0	0	511	543	0	526	38	7	
6	0	0	0	0	513	538	0	515	39	7	
7	0	0	0	0	509	533	0	505	39	7	
8	0	0	0	0	510	534	0	496	39	7	
9	0	0	0	0	507	530	0	494	39	7	
10	0	0	0	0	508	523	0	491	38	8	
11	0	0	0	0	515	518	0	487	38	7	
12	0	0	0	0	508	511	0	490	38	7	
13	0	0	0	0	505	509	0	488	39	7	
14	0	0	0	0	501	508	0	486	38	7	
15	0	0	0	0	507	506	0	497	39	7	
0	0	0	0	0	513	505	0	477	39	7	
1	0	0	0	0	502	503	0	477	38	8	
2	0	0	0	0	506	503	0	479	39	8	
3	0	0	0	0	511	498	0	484	38	8	
4	0	0	0	0	505	499	0	485	38	7	
5	0	0	0	0	509	497	0	485	39	7	
6	0	0	0	0	507	492	0	487	39	7	
7	0	0	0	0	507	485	0	485	39	7	
8	0	0	0	0	505	483	0	483	39	7	
9	0	0	0	0	510	481	0	483	39	7	
10	0	0	0	0	511	481	0	482	39	8	
11	0	0	0	0	503	484	0	487	38	8	
12	0	0	0	0	507	488	0	490	39	7	
13	0	0	0	0	501	488	0	491	39	7	
14	0	0	0	0	509	487	0	492	39	7	
15	0	0	0	0	509	483	0	512	39	7	
0	0	0	0	0	502	481	0	529	38	7	
1	0	0	0	0	511	473	0	540	38	7	
2	0	0	0	0	508	470	0	564	38	7	
3	0	0	0	0	501	469	0	568	38	8	
4	0	0	0	0	510	472	0	577	38	8	
5	0	0	0	0	513	475	0	579	38	7	
6	0	0	0	0	516	475	0	575	39	7	
7	0	0	0	0	508	475	0	582	39	7	
8	0	0	0	0	513	469	0	575	39	7	
9	0	0	0	0	506	461	0	578	38	7	
10	0	0	0	0	506	457	0	591	39	8	
11	0	0	0	0	505	455	0	572	38	8	
12	0	0	0	0	505	453	0	563	38	8	
13	0	0	0	0	505	450	0	568	39	7	
14	0	0	0	0	516	447	0	565	39	7	
15	0	0	0	0	501	448	0	558	39	7	
0	0	0	0	0	511	448	0	547	39	7	
1	0	0	0	0	503	447	0	534	39	7	
2	0	0	0	0	506	445	0	522	38	7	
3	0	0	0	0	501	444	0	512	38	8	
4	0	0	0	0	499	445	0	507	38	8	
5	0	0	0	0	514	447	0	501	38	7	
6	0	0	0	0	511	448	0	500	39	7	
7	0	0	0	0	515	446	0	492	39	7	
8	0	0	0	0	510	447	0	486	39	7	
9	0	0	0	0	504	450	0	486	38	7	
10	0	0	0	0	509	450	0	486	39	7	
11	0	0	0	0	506	449	0	487	38	7	
12	0	0	0	0	500	450	0	487	39	8	
13	0	0	0	0	511	449	0	503	39	7	
14	0	0	0	0	505	448	0	492	39	7	
15	0	0	0	0	498	449	0	489	39	7	
0	0	0	0	0	511	451	0	484	39	7	
1	0	0	0	0	508	454	0	483	39	7	
2	0	0	0	0	509	453	0	483	39	7	
3	0	0	0	0	512	460	0	488	38	8	
4	0	0	0	0	507	463	0	490	39	8	
5	0	0	0	0	504	460	0	495	39	8	
6	0	0	0	0	502	456	0	496	39	7	
7	0	0	0	0	508	451	0	492	39	7	
8	0	0	0	0	509	450	0	490	39	7	
9	0	0	0	0	515	450	0	491	39	7	
10	0	0	0	0	500	451	0	495	38	7	
11	0	0	0	0	504	452	0	497	38	7	
12	0	0	0	0	511	450	0	528	38	8	
13	0	0	0	0	509	446	0	540	38	8	
14	0	0	0	0	511	443	0	551	38	7	
15	0	0	0	0	501	439	0	567	39	7	
0	0	0	0	0	504	439	0	562	39	7	
1	0	0	0	0	511	437	0	570	39	7	
2	0	0	0	0	510	437	0	579	39	7	
3	0	0	0	0	511	437	0	579	38	7	
4	0	0	0	0	499	443	0	588	39	7	
5	0	0	0	0	511	451	0	579	39	8	
6	0	0	0	0	505	457	0	583	39	8	
7	0	0	0	0	507	464	0	579	39	7	
8	0	0	0	0	502	465	0	571	39	7	
9	0	0	0	0	511	466	0	560	39	7	
10	0	0	0	0	504	467	0	544	38	7	
11	0	0	0	0	504	467	0	540	38	7	
12	0	0	0	0	506	464	0	523	38	8	
13	0	0	0	0	516	461	0	512	39	8	
14	0	0	0	0	507	461	0	509	38	8	
15	0	0	0	0	505	460	0	498	39	7	
0	0	0	0	0	511	457	0	491	39	7	
1	0	0	0	0	509	455	0	493	38	7	
2	0	0	0	0	505	463	0	492	39	7	
3	0	0	0	0	505	471	0	495	38	7	
4	0	0	0	0	508	475	0	494	38	7	
5	0	0	0	0	507	475	0	496	39	8	
6	0	0	0	0	506	472	0	496	39	8	
7	0	0	0	0	513	470	0	494	39	7	
8	0	0	0	0	504	472	0	493	39	7	
9	0	0	0	0	502	472	0	491	39	7	
10	0	0	0	0	512	472	0	494	39	7	
11	0	0	0	0	502	473	0	497	38	7	
12	0	0	0	0	508	473	0	499	39	7	
13	0	0	0	0	501	474	0	505	38	7	
14	0	0	0	0	507	474	0	502	39	8	
15	0	0	0	0	508	473	0	496	39	7	
0	0	0	0	0	511	475	0	495	38	7	
1	0	0	0	0	505	472	0	495	39	7	
2	0	0	0	0	502	472	0	498	38	7	
3	0	0	0	0	507	475	0	497	38	7	
4	0	0	0	0	510	479	0	497	39	7	
5	0	0	0	0	501	480	0	499	38	7	
6	0	0	0	0	511	477	0	497	39	8	
7	0	0	0	0	512	481	0	495	39	7	
8	0	0	0	0	503	481	0	491	38	7	
9	0	0	0	0	509	485	0	487	39	7	
10	0	0	0	0	511	484	0	492	38	7	
11	0	0	0	0	509	485	0	492	38	7	
12	0	0	0	0	507	484	0	499	39	7	
13	0	0	0	0	507	482	0	522	39	7	
14	0	0	0	0	512	480	0	532	39	8	
15	0	0	0	0	504	477	0	544	39	8	
0	0	0	0	0	503	476	0	559	39	7	
1	0	0	0	0	507	480	0	561	38	7	
2	0	0	0	0	504	481	0	574	38	7	
3	0	0	0	0	510	481	0	578	38	7	
4	0	0	0	0	509	482	0	578	38	7	
5	0	0	0	0	505	483	0	585	39	7	
6	0	0	0	0	507	481	0	576	39	7	
7	0	0	0	0	510	479	0	580	39	8	
8	0	0	0	0	513	479	0	574	39	7	
9	0	0	0	0	508	476	0	572	39	7	
10	0	0	0	0	507	477	0	582	39	7	
11	0	0	0	0	504	483	0	577	38	7	
12	0	0	0	0	508	489	0	583	39	7	
13	0	0	0	0	511	493	0	553	39	7	
14	0	0	0	0	512	497	0	535	39	7	
15	0	0	0	0	515	500	0	514	39	8	
0	0	0	0	0	505	498	0	502	39	7	
1	0	0	0	0	508	494	0	492	39	7	
2	0	0	0	0	507	493	0	489	39	7	
3	0	0	0	0	505	494	0	491	38	7	
4	0	0	0	0	507	495	0	490	39	7	
5	0	0	0	0	512	491	0	493	39	7	
6	0	0	0	0	504	485	0	492	39	7	
7	0	0	0	0	513	487	0	488	39	8	
8	0	0	0	0	508	489	0	488	38	8	
9	0	0	0	0	503	489	0	488	39	7	
10	0	0	0	0	502	492	0	491	38	7	
11	0	0	0	0	504	492	0	492	38	7	
12	0	0	0	0	509	485	0	494	39	7	
13	0	0	0	0	506	481	0	495	38	7	
14	0	0	0	0	508	480	0	493	39	7	
15	0	0	0	0	509	483	0	499	39	7	
0	0	0	0	0	502	485	0	490	39	8	
1	0	0	0	0	513	486	0	485	39	7	
2	0	0	0	0	507	489	0	488	38	7	
3	0	0	0	0	511	491	0	488	38	7	
4	0	0	0	0	507	494	0	491	39	7	
5	0	0	0	0	513	494	0	494	39	7	
6	0	0	0	0	511	492	0	511	39	7	
7	0	0	0	0	511	492	0	524	39	7	
8	0	0	0	0	505	492	0	522	39	8	
9	0	0	0	0	499	493	0	523	39	7	
10	0	0	0	0	506	494	0	540	38	7	
11	0	0	0	0	514	495	0	545	38	7	
12	0	0	0	0	507	497	0	553	39	7	
13	0	0	0	0	500	496	0	567	39	7	
14	0	0	0	0	506	499	0	575	39	7	
15	0	0	0	0	506	499	0	573	39	7	
0	0	0	0	0	512	498	0	567	39	8	
1	0	0	0	0	508	498	0	563	39	8	
2	0	0	0	0	504	499	0	571	39	7	
3	0	0	0	0	510	495	0	566	38	7	
4	0	0	0	0	503	491	0	574	39	7	
5	0	0	0	0	510	492	0	572	39	7	
6	0	0	0	0	506	493	0	570	39	7	
7	0	0	0	0	512	492	0	571	39	7	
8	0	0	0	0	508	491	0	559	38	7	
9	0	0	0	0	508	493	0	550	39	8	
10	0	0	0	0	508	494	0	535	39	7	
11	0	0	0	0	509	497	0	520	38	7	
12	0	0	0	0	516	501	0	507	39	7	
13	0	0	0	0	505	501	0	500	39	7	
14	0	0	0	0	502	500	0	495	39	7	
15	0	0	0	0	504	496	0	488	39	7	
0	0	0	0	0	507	495	0	500	39	7	
1	0	0	0	0	510	499	0	523	39	8	
2	0	0	0	0	504	497	0	531	38	7	
3	0	0	0	0	509	490	0	534	38	7	
4	0	0	0	0	502	487	0	548	38	7	
5	0	0	0	0	508	490	0	554	38	7	
6	0	0	0	0	507	493	0	550	39	7	
7	0	0	0	0	509	496	0	541	39	7	
8	0	0	0	0	503	497	0	527	38	7	
9	0	0	0	0	510	496	0	511	38	8	
10	0	0	0	0	511	497	0	503	39	8	
11	0	0	0	0	503	497	0	493	38	7	
12	0	0	0	0	508	499	0	489	39	7	
13	0	0	0	0	505	498	0	483	39	7	
14	0	0	0	0	513	494	0	477	39	7	
15	0	0	0	0	506	494	2	474	39	7	
0	0	0	0	0	507	501	0	470	39	7	
1	0	0	0	0	507	505	0	470	39	7	
2	0	0	0	0	507	511	0	471	38	8	
3	0	0	0	0	508	515	0	468	38	7	
4	0	0	0	0	508	517	0	472	38	7	
5	0	0	0	0	506	515	0	480	39	7	
6	0	0	0	0	507	515	0	475	39	7	
7	0	0	0	0	499	512	0	473	39	7	
8	0	0	0	0	511	511	0	463	39	7	
9	0	0	0	0	510	510	0	467	38	8	
10	0	0	0	0	507	508	0	466	39	8	
11	0	0	0	0	507	511	0	468	38	8	
12	0	0	0	0	505	511	0	472	39	7	
13	0	0	0	0	510	508	0	468	39	7	
14	0	0	0	0	507	508	0	471	39	7	
15	0	0	0	0	506	507	0	468	39	7	
0	0	0	0	0	509	505	0	466	39	7	
1	0	0	0	0	497	505	0	467	39	7	
2	0	0	0	0	505	504	0	466	38	8	
3	0	0	0	0	507	503	0	487	38	8	
4	0	0	0	0	508	506	0	516	39	7	
5	0	0	0	0	516	509	0	529	39	7	
6	0	0	0	0	501	509	0	546	39	7	
7	0	0	0	0	510	508	0	553	39	7	
8	0	0	0	0	509	506	0	555	39	7	
9	0	0	0	0	511	504	0	563	39	7	
10	0	0	0	0	507	503	0	556	38	7	
11	0	0	0	0	512	504	0	563	38	8	
12	0	0	0	0	512	506	0	563	39	8	
13	0	0	0	0	503	506	0	563	38	7	
14	0	0	0	0	505	511	0	566	39	7	
15	0	0	0	0	499	511	3	553	39	7	
0	0	0	0	0	509	512	0	544	38	7	
1	0	0	0	0	510	509	0	527	38	7	
2	0	0	0	0	511	507	0	516	38	8	
3	0	0	0	0	506	505	0	503	38	8	
4	0	0	0	0	504	503	0	495	39	8	
5	0	0	0	0	507	498	0	488	39	7	
6	0	0	0	0	513	493	0	486	39	7	
7	0	0	0	0	512	488	0	480	39	7	
8	0	0	0	0	514	487	0	476	39	7	
9	0	0	0	0	510	488	0	471	38	7	
10	0	0	0	0	504	488	0	472	38	7	
11	0	0	0	0	499	486	0	468	38	8	
12	0	0	0	0	508	486	0	472	38	8	
13	0	0	0	0	509	487	0	472	39	7	
14	0	0	0	0	503	491	0	472	39	7	
15	0	0	0	0	506	493	0	470	39	7	
0	0	0	0	0	514	495	0	462	39	7	
1	0	0	0	0	499	497	0	463	38	7	
2	0	0	0	0	503	501	0	462	39	7	
3	0	0	0	0	510	505	0	464	38	8	
4	0	0	0	0	504	506	0	467	39	8	
5	0	0	0	0	515	505	0	461	39	8	
6	0	0	0	0	504	504	0	465	38	7	
7	0	0	0	0	505	504	0	459	39	7	
8	0	0	0	0	511	505	0	458	39	7	
9	0	0	0	0	505	499	0	459	39	7	
10	0	0	0	0	510	497	0	456	39	7	
11	0	0	0	0	504	498	0	461	38	8	
12	0	0	0	0	508	496	0	473	39	8	
13	0	0	0	0	499	494	0	498	39	8	
14	0	0	0	0	509	491	0	508	39	7	
15	0	0	0	0	514	488	0	528	39	7	
0	0	0	0	0	511	489	0	538	38	7	
1	0	0	0	0	511	489	0	542	38	7	
2	0	0	0	0	504	484	0	554	38	7	
3	0	0	0	0	505	486	0	547	38	7	
4	0	0	0	0	505	488	0	552	39	8	
5	0	0	0	0	507	491	0	557	38	8	
6	0	0	0	0	505	493	0	556	39	8	
7	0	0	0	0	505	492	0	562	39	7	
8	0	0	0	0	505	492	0	551	39	7	
9	0	0	0	0	515	491	0	542	39	7	
10	0	0	0	0	504	489	0	528	39	7	
11	0	0	0	0	507	489	0	513	38	7	
12	0	0	0	0	513	491	0	502	39	8	
13	0	0	0	0	507	493	0	494	39	8	
14	0	0	0	0	516	494	0	485	39	8	
15	0	0	0	0	503	496	0	482	39	7	
0	0	0	0	0	503	494	0	478	39	7	
1	0	0	0	0	508	491	0	476	38	7	
2	0	0	0	0	502	491	0	473	38	7	
3	0	0	0	0	513	491	0	469	38	7	
4	0	0	0	0	507	496	0	474	38	8	
5	0	0	0	0	505	500	0	474	39	8	
6	0	0	0	0	508	502	0	474	39	8	
7	0	0	0	0	499	502	0	471	39	7	
8	0	0	0	0	508	501	0	465	39	7	
9	0	0	0	0	514	499	0	468	38	7	
10	0	0	0	0	505	497	0	468	39	7	
11	0	0	0	0	510	495	0	471	38	7	
12	0	0	0	0	502	495	0	472	39	7	
13	0	0	0	0	507	495	0	468	39	8	
14	0	0	0	0	510	499	0	473	39	8	
15	0	0	0	0	505	497	0	471	39	7	
0	0	0	0	0	496	496	0	467	39	7	
1	0	0	0	0	504	490	0	470	39	7	
2	0	0	0	0	509	486	0	467	39	7	
3	0	0	0	0	512	487	0	470	38	7	
4	0	0	0	0	509	490	0	473	39	7	
5	0	0	0	0	504	492	0	481	39	8	
6	0	0	0	0	505	491	0	505	39	8	
7	0	0	0	0	517	492	0	517	39	8	
8	0	0	0	0	506	495	0	529	38	7	
9	0	0	0	0	508	492	0	547	39	7	
10	0	0	0	0	506	489	0	549	39	7	
11	0	0	0	0	509	491	0	559	38	7	
12	0	0	0	0	512	492	0	560	39	7	
13	0	0	0	0	510	493	0	559	39	8	
14	0	0	0	0	507	494	0	565	39	8	
15	0	0	0	0	509	495	0	555	39	8	
0	0	0	0	0	506	497	0	562	39	7	
1	0	0	0	0	508	499	0	558	39	7	
2	0	0	0	0	505	503	0	551	38	7	
3	0	0	0	0	509	504	0	538	38	7	
4	0	0	0	0	507	510	0	523	39	7	
5	0	0	0	0	508	511	0	510	39	8	
6	0	0	0	0	513	510	0	498	39	8	
7	0	0	0	0	497	511	0	490	39	8	
8	0	0	0	0	503	513	0	498	39	7	
9	0	0	0	0	504	518	0	482	39	7	
10	0	0	0	0	509	523	0	479	39	7	
11	0	0	0	0	515	531	0	475	38	7	
12	0	0	0	0	507	542	0	478	38	7	
13	0	0	0	0	509	553	0	478	39	7	
14	0	0	0	0	506	569	0	478	39	8	
15	0	0	0	0	506	582	0	476	39	8	
0	0	0	0	0	510	596	0	470	39	8	
1	0	0	0	0	505	611	0	475	38	8	
2	0	0	0	0	506	627	0	477	39	7	
3	0	0	0	0	503	641	0	478	38	7	
4	0	0	0	0	504	653	0	480	38	7	
5	0	0	0	0	509	664	0	481	39	7	
6	0	0	0	0	510	675	0	483	39	8	
7	0	0	0	0	500	689	0	496	39	8	
8	0	0	0	0	505	702	0	480	39	8	
9	0	0	0	0	514	715	0	482	39	7	
10	0	0	0	0	513	721	0	478	39	7	
11	0	0	0	0	511	722	0	480	38	7	
12	0	0	0	0	508	719	0	480	39	7	
13	0	0	0	0	508	716	0	481	39	7	
14	0	0	0	0	505	713	0	483	39	7	
15	0	0	0	0	507	708	0	499	39	8	
0	0	0	0	0	507	695	0	514	39	8	
1	0	0	0	0	506	680	0	524	39	8	
2	0	0	0	0	507	669	0	548	39	7	
3	0	0	0	0	509	652	0	552	38	7	
4	0	0	0	0	505	636	0	562	38	7	
5	0	0	0	0	507	628	0	566	38	7	
6	0	0	0	0	500	616	0	563	38	7	
7	0	0	0	0	504	605	0	572	39	8	
8	0	0	0	0	511	588	0	566	39	8	
9	0	0	0	0	513	572	0	569	38	8	
10	0	0	0	0	510	557	0	570	38	8	
11	0	0	0	0	515	537	0	563	38	7	
12	0	0	0	0	505	518	0	555	38	7	
13	0	0	0	0	504	497	0	563	38	7	
14	0	0	0	0	510	480	0	560	39	7	
15	0	0	0	0	502	466	0	553	39	8	
0	0	0	0	0	503	451	0	541	39	8	
1	0	0	0	0	504	437	0	528	38	8	
2	0	0	0	0	505	427	0	517	38	8	
3	0	0	0	0	516	416	0	505	38	7	
4	0	0	0	0	508	405	0	499	38	7	
5	0	0	0	0	509	396	0	493	38	7	
6	0	0	0	0	503	393	0	492	38	7	
7	0	0	0	0	503	389	0	487	39	7	
8	0	0	0	0	501	384	0	479	39	8	
9	0	0	0	0	511	384	0	480	38	8	
10	0	0	0	0	510	385	0	483	39	8	
11	0	0	0	0	507	388	0	485	38	7	
12	0	0	0	0	496	393	0	484	38	7	
13	0	0	0	0	512	400	0	483	39	7	
14	0	0	0	0	507	405	0	481	39	7	
15	0	0	0	0	508	408	0	478	39	7	
0	0	0	0	0	512	412	0	476	38	8	
1	0	0	0	0	504	419	0	476	38	8	
2	0	0	0	0	513	424	0	476	39	8	
3	0	0	0	0	512	426	0	481	38	8	
4	0	0	0	0	513	428	0	484	39	7	
5	0	0	0	0	503	432	0	487	38	7	
6	0	0	0	0	507	436	0	487	39	7	
7	0	0	0	0	506	440	0	485	39	7	
8	0	0	0	0	499	448	0	485	38	8	
9	0	0	0	0	507	454	0	485	39	8	
10	0	0	0	0	512	456	0	487	39	8	
11	0	0	0	0	509	455	0	487	38	8	
12	0	0	0	0	510	459	0	488	39	7	
13	0	0	0	0	504	462	0	491	38	7	
14	0	0	0	0	510	466	0	490	39	7	
15	0	0	0	0	503	471	0	491	39	7	
0	0	0	0	0	505	474	0	489	38	7	
1	0	0	0	0	508	469	0	485	39	8	
2	0	0	0	0	507	469	0	488	38	8	
3	0	0	0	0	503	470	0	492	38	8	
4	0	0	0	0	509	475	0	497	39	7	
5	0	0	0	0	508	478	0	497	39	7	
6	0	0	0	0	505	484	0	499	39	7	
7	0	0	0	0	508	487	0	494	39	7	
8	0	0	0	0	507	482	0	490	39	7	
9	0	0	0	0	506	480	0	492	39	8	
10	0	0	0	0	512	481	0	496	39	8	
11	0	0	0	0	511	483	0	519	38	8	
12	0	0	0	0	506	486	0	543	38	8	
13	0	0	0	0	512	489	0	556	38	7	
14	0	0	0	0	497	493	0	574	39	7	
15	0	0	0	0	511	501	0	568	39	7	
0	0	0	0	0	505	502	0	574	39	7	
1	0	0	0	0	503	499	0	579	39	8	
2	0	0	0	0	513	498	0	578	38	8	
3	0	0	0	0	502	497	0	594	38	8	
4	0	0	0	0	508	496	0	578	39	8	
5	0	0	0	0	509	495	0	580	39	7	
6	0	0	0	0	507	498	0	575	39	7	
7	0	0	0	0	504	500	0	568	39	7	
8	0	0	0	0	500	501	0	576	39	7	
9	0	0	0	0	505	504	0	569	39	8	
10	0	0	0	0	507	504	0	574	38	8	
11	0	0	0	0	508	504	0	575	38	8	
12	0	0	0	0	515	502	0	570	39	8	
13	0	0	0	0	510	500	0	563	38	7	
14	0	0	0	0	508	498	0	571	39	7	
15	0	0	0	0	510	495	0	566	39	7	
0	0	0	0	0	504	495	0	561	38	7	
1	0	0	0	0	513	494	0	549	39	7	
2	0	0	0	0	505	496	0	533	38	8	
3	0	0	0	0	499	496	0	517	38	8	
4	0	0	0	0	508	498	0	505	38	8	
5	0	0	0	0	510	499	0	501	38	8	
6	0	0	0	0	503	502	0	493	39	7	
7	0	0	0	0	500	502	0	491	39	7	
8	0	0	0	0	504	501	0	487	38	7	
9	0	0	0	0	507	499	0	484	39	7	
10	0	0	0	0	509	499	0	485	38	8	
11	0	0	0	0	503	500	0	483	38	8	
12	0	0	0	0	501	500	0	483	39	8	
13	0	0	0	0	509	496	0	484	38	8	
14	0	0	0	0	515	494	0	479	39	7	
15	0	0	0	0	504	496	0	473	39	7	
0	0	0	0	0	508	499	0	470	39	7	
1	0	0	0	0	510	502	0	471	39	7	
2	0	0	0	0	508	504	0	474	39	8	
3	0	0	0	0	515	505	0	472	38	8	
4	0	0	0	0	508	507	0	476	38	8	
5	0	0	0	0	505	504	0	477	39	8	
6	0	0	0	0	502	504	0	478	38	8	
7	0	0	0	0	506	504	0	477	39	7	
8	0	0	0	0	504	502	0	470	39	7	
9	0	0	0	0	507	502	0	474	38	7	
10	0	0	0	0	506	504	0	475	39	7	
11	0	0	0	0	497	507	0	476	38	8	
12	0	0	0	0	506	507	0	486	38	8	
13	0	0	0	0	518	508	0	480	38	8	
14	0	0	0	0	508	508	0	479	39	8	
15	0	0	0	0	503	507	0	485	39	7	
0	0	0	0	0	508	505	0	510	38	7	
1	0	0	0	0	509	506	0	523	39	7	
2	0	0	0	0	508	509	0	542	38	8	
3	0	0	0	0	510	511	0	551	38	8	
4	0	0	0	0	512	514	0	552	39	8	
5	0	0	0	0	496	516	0	564	39	8	
6	0	0	0	0	510	519	0	558	39	8	
7	0	0	0	0	511	518	0	561	39	8	
8	0	0	0	0	508	518	0	558	39	7	
9	0	0	0	0	505	517	0	553	39	7	
10	0	0	0	0	500	517	0	563	39	7	
11	0	0	0	0	505	518	0	554	38	8	
12	0	0	0	0	516	520	0	536	39	8	
13	0	0	0	0	507	523	0	537	38	8	
14	0	0	0	0	503	521	0	544	39	8	
15	0	0	0	0	507	518	0	540	39	8	
0	0	0	0	0	505	514	0	549	39	7	
1	0	0	0	0	513	515	0	551	39	7	
2	0	0	0	0	502	521	0	548	38	7	
3	0	0	0	0	508	525	0	538	38	7	
4	0	0	0	0	512	524	0	524	38	8	
5	0	0	0	0	505	524	0	511	38	8	
6	0	0	0	0	510	523	0	498	39	8	
7	0	0	0	0	509	523	0	488	39	8	
8	0	0	0	0	510	524	0	478	39	7	
9	0	0	0	0	506	526	0	475	38	7	
10	0	0	0	0	499	527	0	474	39	7	
11	0	0	0	0	512	530	0	469	38	7	
12	0	0	0	0	510	532	0	473	38	8	
13	0	0	0	0	504	532	0	473	39	8	
14	0	0	0	0	500	532	0	485	39	8	
15	0	0	0	0	502	533	0	473	39	8	
0	0	0	0	0	513	536	0	465	39	7	
1	0	0	0	0	512	539	0	467	38	7	
2	0	0	0	0	509	541	0	467	39	7	
3	0	0	0	0	512	543	0	468	38	7	
4	0	0	0	0	500	540	0	470	38	7	
5	0	0	0	0	508	542	0	467	39	8	
6	0	0	0	0	511	546	1	470	38	8	
7	0	0	0	0	511	548	0	467	39	8	
8	0	0	0	0	508	550	0	467	39	7	
9	0	0	0	0	502	550	1	470	39	7	
10	0	0	0	0	509	550	0	467	39	7	
11	0	0	0	0	506	549	0	472	38	7	
12	0	0	0	0	507	552	0	474	39	7	
13	0	0	0	0	511	553	0	477	39	8	
14	0	0	0	0	504	554	0	479	39	8	
15	0	0	0	0	505	556	0	497	39	8	
0	0	0	0	0	511	558	0	515	38	8	
1	0	0	0	0	511	558	0	527	38	7	
2	0	0	0	0	507	561	0	551	39	7	
3	0	0	0	0	503	562	0	554	38	7	
4	0	0	0	0	508	565	0	564	38	8	
5	0	0	0	0	508	568	0	567	38	8	
6	0	0	0	0	510	573	0	563	38	8	
7	0	0	0	0	507	574	0	571	39	8	
8	0	0	0	0	504	572	0	564	39	8	
9	0	0	0	0	504	571	0	568	38	8	
10	0	0	0	0	508	570	0	567	38	7	
11	0	0	0	0	512	566	0	561	38	7	
12	0	0	0	0	509	568	0	554	38	7	
13	0	0	0	0	514	575	0	562	38	7	
14	0	0	0	0	511	578	0	559	39	8	
15	0	0	0	0	499	579	0	550	39	8	
0	0	0	0	0	511	579	0	539	39	8	
1	0	0	0	0	510	576	0	526	39	7	
2	0	0	0	0	503	578	0	528	38	7	
3	0	0	0	0	512	579	0	503	38	7	
4	0	0	0	0	508	579	0	497	38	7	
5	0	0	0	0	508	579	0	491	39	7	
6	0	0	0	0	501	580	0	488	39	8	
7	0	0	0	0	508	583	0	480	39	8	
8	0	0	0	0	511	586	0	470	39	8	
9	0	0	0	0	513	588	0	474	38	8	
10	0	0	0	0	509	587	0	474	39	7	
11	0	0	0	0	510	584	0	474	38	7	
12	0	0	0	0	498	583	0	478	39	7	
13	0	0	0	0	508	583	0	475	39	7	
14	0	0	0	0	501	585	0	477	38	8	
15	0	0	0	0	509	588	0	473	39	8	
0	0	0	0	0	504	591	0	471	38	8	
1	0	0	0	0	504	593	0	472	38	8	
2	0	0	0	0	513	593	0	469	39	7	
3	0	0	0	0	512	595	0	475	38	7	
4	0	0	0	0	506	595	0	478	39	7	
5	0	0	0	0	504	592	0	479	38	7	
6	0	0	0	0	511	589	0	481	39	7	
7	0	0	0	0	510	585	0	492	39	8	
8	0	0	0	0	504	586	0	480	38	8	
9	0	0	0	0	503	581	0	480	39	8	
10	0	0	0	0	508	572	0	484	38	7	
11	0	0	0	0	511	565	0	486	38	7	
12	0	0	0	0	504	562	0	505	38	7	
13	0	0	0	0	505	563	0	526	38	7	
14	0	0	0	0	510	563	0	536	38	7	
15	0	0	0	0	507	563	0	552	39	8	
0	0	0	0	0	510	562	0	550	39	8	
1	0	0	0	0	507	560	0	559	39	8	
2	0	0	0	0	505	560	0	567	38	8	
3	0	0	0	0	507	560	0	567	38	7	
4	0	0	0	0	504	558	0	575	38	7	
5	0	0	0	0	508	554	0	566	39	7	
6	0	0	0	0	513	549	0	568	39	7	
7	0	0	0	0	508	544	0	567	39	8	
8	0	0	0	0	499	542	0	561	39	8	
9	0	0	0	0	505	539	0	551	39	8	
10	0	0	0	0	497	539	0	535	38	8	
11	0	0	0	0	515	536	0	519	38	7	
12	0	0	0	0	512	534	0	511	38	7	
13	0	0	0	0	509	532	0	503	39	7	
14	0	0	0	0	505	530	0	499	39	7	
15	0	0	0	0	498	526	0	493	39	7	
0	0	0	0	0	508	524	0	488	39	8	
1	0	0	0	0	509	526	0	489	38	8	
2	0	0	0	0	513	522	0	488	39	8	
3	0	0	0	0	503	521	0	487	38	7	
4	0	0	0	0	508	521	0	489	39	7	
5	0	0	0	0	508	520	0	488	39	7	
6	0	0	0	0	496	519	0	488	38	7	
7	0	0	0	0	502	517	0	486	39	7	
8	0	0	0	0	515	519	0	485	38	8	
9	0	0	0	0	508	521	0	485	38	8	
10	0	0	0	0	510	512	0	487	39	8	
11	0	0	0	0	508	504	0	491	38	8	
12	0	0	0	0	499	499	0	491	39	7	
13	0	0	0	0	515	495	0	495	39	7	
14	0	0	0	0	504	490	0	493	39	7	
15	0	0	0	0	515	488	0	491	39	7	
0	0	0	0	0	502	488	0	493	38	8	
1	0	0	0	0	509	487	0	492	39	8	
2	0	0	0	0	505	487	0	494	39	8	
3	0	0	0	0	506	486	0	492	38	8	
4	0	0	0	0	511	483	0	492	38	7	
5	0	0	0	0	505	484	0	509	38	7	
6	0	0	0	0	511	481	0	527	39	7	
7	0	0	0	0	507	475	0	532	39	7	
8	0	0	0	0	500	469	0	550	38	7	
9	0	0	0	0	515	466	0	555	39	8	
10	0	0	0	0	498	468	0	566	39	8	
11	0	0	0	0	494	468	0	576	38	8	
12	0	0	0	0	512	465	0	574	39	7	
13	0	0	0	0	510	463	0	582	39	7	
14	0	0	0	0	514	461	0	572	39	7	
15	0	0	0	0	508	463	0	566	39	7	
0	0	0	0	0	507	463	0	569	39	7	
1	0	0	0	0	519	461	0	560	39	8	
2	0	0	0	0	510	458	0	554	38	8	
3	0	0	0	0	512	456	0	539	38	8	
4	0	0	0	0	503	456	0	525	38	8	
5	0	0	0	0	511	459	0	511	39	7	
6	0	0	0	0	504	461	0	506	39	7	
7	0	0	0	0	505	460	0	500	39	7	
8	0	0	0	0	507	458	0	514	39	7	
9	0	0	0	0	509	454	0	531	38	8	
10	0	0	0	0	507	451	0	539	39	8	
11	0	0	0	0	509	447	0	538	38	8	
12	0	0	0	0	495	444	0	528	38	8	
13	0	0	0	0	509	439	0	518	39	7	
14	0	0	0	0	503	439	0	524	39	7	
15	0	0	0	0	508	439	0	532	39	7	
0	0	0	0	0	509	440	0	527	38	7	
1	0	0	0	0	506	443	0	526	38	8	
2	0	0	0	0	515	445	0	516	39	8	
3	0	0	0	0	511	447	0	511	38	8	
4	0	0	0	0	502	446	0	502	39	8	
5	0	0	0	0	505	444	0	497	39	7	
6	0	0	0	0	502	445	0	491	39	7	
7	0	0	0	0	505	444	0	486	39	7	
8	0	0	0	0	504	443	0	486	38	7	
9	0	0	0	0	509	440	0	484	39	7	
10	0	0	0	0	510	439	0	485	38	8	
11	0	0	0	0	502	435	0	484	38	8	
12	0	0	0	0	511	438	0	483	39	8	
13	0	0	0	0	509	439	0	483	38	8	
14	0	0	0	0	507	438	0	480	39	7	
15	0	0	0	0	504	440	0	477	39	7	
0	0	0	0	0	501	443	0	478	39	7	
1	0	0	0	0	508	443	0	472	39	7	
2	0	0	0	0	511	442	0	476	38	8	
3	0	0	0	0	506	441	0	477	38	8	
4	0	0	0	0	500	441	0	481	38	8	
5	0	0	0	0	500	441	0	483	39	8	
6	0	0	0	0	512	440	0	480	39	7	
7	0	0	0	0	512	442	0	478	39	7	
8	0	0	0	0	515	442	0	479	39	7	
9	0	0	0	0	513	441	0	480	38	7	
10	0	0	0	0	505	440	0	480	38	7	
11	0	0	0	0	509	441	0	478	38	8	
12	0	0	0	0	499	445	0	482	38	8	
13	0	0	0	0	507	448	0	492	39	8	
14	0	0	0	0	502	452	0	515	39	7	
15	0	0	0	0	512	454	0	522	39	7	
0	0	0	0	0	510	456	0	538	39	7	
1	0	0	0	0	508	461	0	549	39	7	
2	0	0	0	0	508	462	0	551	38	7	
3	0	0	0	0	499	461	0	565	38	8	
4	0	0	0	0	510	461	0	563	39	8	
5	0	0	0	0	514	463	0	568	38	8	
6	0	0	0	0	509	462	0	566	39	8	
7	0	0	0	0	504	460	0	559	39	7	
8	0	0	0	0	502	459	0	567	39	7	
9	0	0	0	0	511	460	0	560	39	7	
10	0	0	0	0	504	460	0	551	38	7	
11	0	0	0	0	505	460	0	537	38	8	
12	0	0	0	0	509	460	0	523	39	8	
13	0	0	0	0	508	460	0	513	39	8	
14	0	0	0	0	510	460	0	502	39	8	
15	0	0	0	0	504	463	0	494	39	7	
0	0	0	0	0	503	464	0	489	38	7	
1	0	0	0	0	507	464	0	496	39	7	
2	0	0	0	0	507	463	0	483	39	7	
3	0	0	0	0	508	462	0	481	38	7	
4	0	0	0	0	512	464	0	476	39	8	
5	0	0	0	0	502	466	0	476	38	8	
6	0	0	0	0	510	468	0	474	39	8	
7	0	0	0	0	505	471	0	471	39	8	
8	0	0	0	0	510	474	0	469	38	7	
9	0	0	0	0	508	475	0	465	39	7	
10	0	0	0	0	506	477	0	471	38	7	
11	0	0	0	0	509	478	0	473	38	7	
12	0	0	0	0	507	477	0	476	39	8	
13	0	0	0	0	507	478	0	479	39	8	
14	0	0	0	0	512	478	0	483	39	8	
15	0	0	0	0	508	475	0	481	39	8	
0	0	0	0	0	501	475	0	477	39	7	
1	0	0	0	0	500	478	0	477	39	7	
2	0	0	0	0	509	480	0	478	38	7	
3	0	0	0	0	510	480	0	478	38	7	
4	0	0	0	0	509	480	0	482	38	8	
5	0	0	0	0	505	477	0	482	39	8	
6	0	0	0	0	504	476	0	483	39	8	
7	0	0	0	0	503	476	0	481	39	8	
8	0	0	0	0	512	475	0	474	39	7	
9	0	0	0	0	511	477	0	477	38	7	
10	0	0	0	0	505	479	0	478	39	7	
11	0	0	0	0	499	481	0	478	38	7	
12	0	0	0	0	512	485	0	480	38	7	
13	0	0	0	0	516	486	0	481	39	8	
14	0	0	0	0	509	486	0	483	38	8	
15	0	0	0	0	500	484	0	476	39	8	
0	0	0	0	0	499	483	0	476	38	7	
1	0	0	0	0	510	481	0	476	39	7	
2	0	0	0	0	512	480	0	474	39	7	
3	0	0	0	0	503	481	0	479	38	7	
4	0	0	0	0	506	483	0	481	39	7	
5	0	0	0	0	510	486	0	484	38	8	
6	0	0	0	0	504	487	0	487	39	8	
7	0	0	0	0	503	487	0	504	39	8	
8	0	0	0	0	511	489	0	519	38	8	
9	0	0	0	0	509	484	0	529	39	7	
10	0	0	0	0	508	481	0	551	38	7	
11	0	0	0	0	508	480	0	556	38	7	
12	0	0	0	0	501	479	0	569	38	7	
13	0	0	0	0	507	483	0	572	38	8	
14	0	0	0	0	513	485	0	569	39	8	
15	0	0	0	0	507	488	0	577	39	8	
0	0	0	0	0	514	492	0	568	39	8	
1	0	0	0	0	504	496	0	570	38	8	
2	0	0	0	0	507	496	0	569	38	7	
3	0	0	0	0	512	494	0	563	38	7	
4	0	0	0	0	501	492	0	574	39	7	
5	0	0	0	0	509	492	0	569	39	7	
6	0	0	0	0	504	492	0	572	39	8	
7	0	0	0	0	507	492	0	567	39	8	
8	0	0	0	0	507	493	0	557	39	8	
9	0	0	0	0	507	497	0	563	39	7	
10	0	0	0	0	508	498	0	556	39	7	
11	0	0	0	0	506	496	0	549	38	7	
12	0	0	0	0	510	493	0	535	38	7	
13	0	0	0	0	503	492	0	519	39	7	
14	0	0	0	0	508	493	0	509	39	8	
15	0	0	0	0	503	492	0	498	39	8	
0	0	0	0	0	505	490	0	512	39	8	
1	0	0	0	0	508	492	0	527	38	8	
2	0	0	0	0	503	489	0	535	39	7	
3	0	0	0	0	509	486	0	534	38	7	
4	0	0	0	0	512	484	0	525	39	7	
5	0	0	0	0	514	483	0	513	39	7	
6	0	0	0	0	509	484	0	502	39	8	
7	0	0	0	0	517	488	0	498	39	8	
8	0	0	0	0	499	492	0	515	39	8	
9	0	0	0	0	505	493	0	521	39	8	
10	0	0	0	0	508	496	0	526	38	7	
11	0	0	0	0	509	496	0	524	38	7	
12	0	0	0	0	512	495	0	515	39	7	
13	0	0	0	0	498	495	0	509	39	7	
14	0	0	0	0	508	498	0	500	39	7	
15	0	0	0	0	516	499	0	493	39	8	
0	0	0	0	0	506	498	0	489	38	8	
1	0	0	0	0	501	499	0	484	39	8	
2	0	0	0	0	508	500	0	482	38	7	
3	0	0	0	0	503	500	0	481	38	7	
4	0	0	0	0	503	490	0	476	38	7	
5	0	0	0	0	510	489	0	474	38	7	
6	0	0	0	0	509	488	0	472	39	7	
7	0	0	0	0	502	492	0	470	39	8	
8	0	0	0	0	502	496	0	469	39	8	
9	0	0	0	0	516	500	0	464	39	8	
10	0	0	0	0	511	498	0	469	38	8	
11	0	0	0	0	506	494	0	469	38	7	
12	0	0	0	0	510	491	0	472	39	7	
13	0	0	0	0	504	487	0	474	39	7	
14	0	0	0	0	508	485	0	467	39	7	
15	0	0	0	0	501	485	0	469	39	8	
0	0	0	0	0	517	486	0	466	39	8	
1	0	0	0	0	506	487	0	469	39	8	
2	0	0	0	0	500	490	0	473	38	7	
3	0	0	0	0	509	489	0	471	38	7	
4	0	0	0	0	506	489	0	477	38	7	
5	0	0	0	0	512	489	0	479	39	7	
6	0	0	0	0	512	492	0	487	39	7	
7	0	0	0	0	504	492	0	508	39	7	
8	0	0	0	0	508	491	0	519	39	8	
9	0	0	0	0	507	490	0	534	39	8	
10	0	0	0	0	505	491	0	550	39	7	
11	0	0	0	0	514	496	0	551	38	7	
12	0	0	0	0	507	496	0	563	38	7	
13	0	0	0	0	504	496	0	563	39	7	
14	0	0	0	0	508	499	0	564	39	7	
15	0	0	0	0	501	500	0	569	39	7	
0	0	0	0	0	507	502	0	561	39	7	
1	0	0	0	0	507	501	0	568	39	8	
2	0	0	0	0	515	504	0	565	39	8	
3	0	0	0	0	511	505	0	563	38	7	
4	0	0	0	0	507	500	0	566	39	7	
5	0	0	0	0	501	494	0	556	38	7	
6	0	0	0	0	504	495	0	560	39	7	
7	0	0	0	0	510	497	0	556	39	7	
8	0	0	0	0	508	499	0	547	38	8	
9	0	0	0	0	516	500	0	533	39	8	
10	0	0	0	0	503	503	0	519	39	8	
11	0	0	0	0	507	508	0	508	38	8	
12	0	0	0	0	511	508	0	496	39	7	
13	0	0	0	0	497	508	0	492	38	7	
14	0	0	0	0	509	511	0	486	39	7	
15	0	0	0	0	510	514	0	481	39	7	
0	0	0	0	0	514	514	0	483	38	7	
1	0	0	0	0	516	511	0	480	39	8	
2	0	0	0	0	505	515	0	479	38	8	
3	0	0	0	0	507	515	0	476	38	7	
4	0	0	0	0	504	517	0	476	38	7	
5	0	0	0	0	502	515	0	493	39	7	
6	0	0	0	0	513	512	0	472	39	7	
7	0	0	0	0	508	510	0	472	39	7	
8	0	0	0	0	505	505	0	467	39	7	
9	0	0	0	0	510	502	0	486	38	7	
10	0	0	0	0	507	503	0	483	39	8	
11	0	0	0	0	505	503	0	470	38	8	
12	0	0	0	0	501	505	0	475	38	8	
13	0	0	0	0	505	505	0	476	39	7	
14	0	0	0	0	509	506	0	478	39	7	
15	0	0	0	0	515	504	0	475	39	7	
0	0	0	0	0	513	504	0	468	39	7	
1	0	0	0	0	503	504	0	475	38	8	
2	0	0	0	0	511	503	0	477	39	8	
3	0	0	0	0	505	503	0	479	38	8	
4	0	0	0	0	507	504	0	484	39	8	
5	0	0	0	0	506	504	0	505	38	7	
6	0	0	0	0	504	508	0	521	38	7	
7	0	0	0	0	508	512	0	530	39	7	
8	0	0	0	0	506	510	0	552	38	7	
9	0	0	0	0	504	510	0	556	39	7	
10	0	0	0	0	511	507	0	568	39	8	
11	0	0	0	0	507	504	0	575	38	8	
12	0	0	0	0	511	501	0	575	39	8	
13	0	0	0	0	498	498	0	582	39	7	
14	0	0	0	0	507	495	0	570	39	7	
15	0	0	0	0	508	492	0	572	39	7	
0	0	0	0	0	506	491	0	571	38	7	
1	0	0	0	0	513	490	0	565	39	7	
2	0	0	0	0	509	490	0	554	39	7	
3	0	0	0	0	501	491	0	537	38	8	
4	0	0	0	0	506	489	0	524	38	8	
5	0	0	0	0	508	492	0	516	38	8	
6	0	0	0	0	511	492	0	507	39	7	
7	0	0	0	0	509	493	0	502	39	7	
8	0	0	0	0	508	491	0	494	39	7	
9	0	0	0	0	514	491	0	488	39	7	
10	0	0	0	0	504	494	0	489	38	7	
11	0	0	0	0	505	495	0	489	38	8	
12	0	0	0	0	507	494	0	491	39	8	
13	0	0	0	0	506	493	0	491	39	7	
14	0	0	0	0	513	495	0	491	39	7	
15	0	0	0	0	506	496	0	489	39	7	
0	0	0	0	0	503	494	0	487	39	7	
1	0	0	0	0	507	494	0	489	38	7	
2	0	0	0	0	513	496	0	492	39	7	
3	0	0	0	0	511	497	0	494	38	8	
4	0	0	0	0	507	496	0	498	38	8	
5	0	0	0	0	511	496	0	497	39	7	
6	0	0	0	0	511	500	0	500	39	7	
7	0	0	0	0	506	503	0	495	39	7	
8	0	0	0	0	508	501	0	486	39	7	
9	0	0	0	0	506	499	0	488	38	7	
10	0	0	0	0	507	496	0	490	39	7	
11	0	0	0	0	501	496	0	492	38	7	
12	0	0	0	0	500	496	0	491	38	8	
13	0	0	0	0	509	497	0	493	38	8	
14	0	0	0	0	502	494	0	509	39	7	
15	0	0	0	0	511	490	0	528	39	7	
0	0	0	0	0	503	489	0	537	39	7	
1	0	0	0	0	512	489	0	556	38	7	
2	0	0	0	0	515	491	0	563	39	7	
3	0	0	0	0	506	497	0	567	38	7	
4	0	0	0	0	503	498	0	578	39	8	
5	0	0	0	0	507	500	0	576	39	8	
6	0	0	0	0	510	502	0	582	39	8	
7	0	0	0	0	514	500	0	574	39	7	
8	0	0	0	0	509	496	0	570	38	7	
9	0	0	0	0	502	491	0	576	39	7	
10	0	0	0	0	505	489	0	569	38	7	
11	0	0	0	0	506	492	0	561	38	7	
12	0	0	0	0	507	494	0	543	39	8	
13	0	0	0	0	512	495	0	529	39	8	
14	0	0	0	0	498	496	0	513	39	8	
15	0	0	0	0	518	497	0	503	39	7	
0	0	0	0	0	508	497	0	490	39	7	
1	0	0	0	0	509	499	0	481	39	7	
2	0	0	0	0	515	501	0	480	38	7	
3	0	0	0	0	510	504	0	480	38	7	
4	0	0	0	0	506	503	0	480	38	7	
5	0	0	0	0	499	505	0	481	39	8	
6	0	0	0	0	513	508	0	478	39	8	
7	0	0	0	0	508	507	0	479	39	8	
8	0	0	0	0	513	505	0	474	39	7	
9	0	0	0	0	495	503	0	473	38	7	
10	0	0	0	0	505	503	0	475	38	7	
11	0	0	0	0	504	504	0	473	38	7	
12	0	0	0	0	508	504	0	478	38	8	
13	0	0	0	0	508	498	0	481	39	8	
14	0	0	0	0	508	496	0	485	39	8	
15	0	0	0	0	508	494	0	482	39	7	
0	0	0	0	0	515	492	0	476	39	7	
1	0	0	0	0	509	491	0	479	38	7	
2	0	0	0	0	505	488	0	479	39	7	
3	0	0	0	0	506	488	0	481	38	7	
4	0	0	0	0	502	491	0	483	39	7	
5	0	0	0	0	509	491	0	483	39	8	
6	0	0	0	0	508	494	0	484	39	8	
7	0	0	0	0	506	499	0	490	39	8	
8	0	0	0	0	504	501	0	512	39	7	
9	0	0	0	0	506	500	0	522	39	7	
10	0	0	0	0	512	501	0	542	38	7	
11	0	0	0	0	509	501	0	555	38	7	
12	0	0	0	0	507	504	0	558	39	7	
13	0	0	0	0	499	509	0	573	39	7	
14	0	0	0	0	511	521	0	567	39	8	
15	0	0	0	0	512	531	0	571	39	8	
0	0	0	0	0	507	542	0	568	39	8	
1	0	0	0	0	502	555	0	563	39	7	
2	0	0	0	0	504	571	0	571	39	7	
3	0	0	0	0	515	585	0	564	38	7	
4	0	0	0	0	509	596	0	557	39	7	
5	0	0	0	0	513	608	0	555	39	7	
6	0	0	0	0	503	621	0	562	39	8	
7	0	0	0	0	508	633	0	553	39	8	
8	0	0	0	0	500	649	0	544	38	8	
9	0	0	0	0	508	660	0	527	38	7	
10	0	0	0	0	515	673	0	515	38	7	
11	0	0	0	0	511	686	0	504	38	7	
12	0	0	0	0	504	697	0	497	38	7	
13	0	0	0	0	500	706	0	491	38	7	
14	0	0	0	0	507	712	0	487	39	8	
15	0	0	0	0	511	719	0	483	39	8	
0	0	0	0	0	508	723	0	480	39	8	
1	0	0	0	0	510	723	0	473	39	7	
2	0	0	0	0	503	722	0	475	39	7	
3	0	0	0	0	506	718	0	472	38	7	
4	0	0	0	0	507	714	0	474	38	7	
5	0	0	0	0	512	708	0	476	39	7	
6	0	0	0	0	504	696	0	479	39	8	
7	0	0	0	0	508	683	0	478	39	8	
8	0	0	0	0	513	670	0	473	39	8	
9	0	0	0	0	508	656	0	477	38	8	
10	0	0	0	0	503	640	0	479	39	7	
11	0	0	0	0	502	623	0	481	38	7	
12	0	0	0	0	504	605	0	482	38	7	
13	0	0	0	0	514	587	0	482	39	7	
14	0	0	0	0	512	572	0	482	38	7	
15	0	0	0	0	512	553	0	478	39	8	
0	0	0	0	0	501	539	0	477	39	8	
1	0	0	0	0	504	520	0	479	39	7	
2	0	0	0	0	506	496	0	477	39	7	
3	0	0	0	0	510	479	0	480	38	7	
4	0	0	0	0	511	465	0	492	39	7	
5	0	0	0	0	506	451	0	519	39	7	
6	0	0	0	0	508	434	0	528	39	7	
7	0	0	0	0	508	421	0	544	39	8	
8	0	0	0	0	506	410	0	553	39	8	
9	0	0	0	0	511	405	0	556	39	8	
10	0	0	0	0	504	405	0	567	39	7	
11	0	0	0	0	506	406	0	563	38	7	
12	0	0	0	0	507	405	0	567	39	7	
13	0	0	0	0	508	405	0	571	38	7	
14	0	0	0	0	508	399	0	566	39	7	
15	0	0	0	0	501	396	0	569	39	7	
0	0	0	0	0	498	399	0	556	39	8	
1	0	0	0	0	505	401	0	547	39	8	
2	0	0	0	0	511	405	0	531	39	8	
3	0	0	0	0	510	410	0	517	38	7	
4	0	0	0	0	505	413	0	506	39	7	
5	0	0	0	0	501	416	0	496	38	7	
6	0	0	0	0	504	420	0	487	39	7	
7	0	0	0	0	515	422	0	484	39	7	
8	0	0	0	0	508	422	0	478	39	8	
9	0	0	0	0	512	425	0	476	38	8	
10	0	0	0	0	506	430	0	476	38	7	
11	0	0	0	0	509	433	0	473	38	7	
12	0	0	0	0	508	436	0	474	38	7	
13	0	0	0	0	506	440	0	475	39	7	
14	0	0	0	0	507	444	0	478	39	7	
15	0	0	0	0	507	447	0	476	39	7	
0	0	0	0	0	511	450	0	467	39	8	
1	0	0	0	0	503	455	0	472	38	8	
2	0	0	0	0	505	460	0	472	39	7	
3	0	0	0	0	508	465	0	474	38	7	
4	0	0	0	0	496	466	0	476	39	7	
5	0	0	0	0	515	467	0	476	39	7	
6	0	0	0	0	509	473	0	480	39	7	
7	0	0	0	0	513	478	0	479	39	7	
8	0	0	0	0	507	478	0	479	39	7	
9	0	0	0	0	508	478	0	481	39	8	
10	0	0	0	0	508	480	0	481	39	8	
11	0	0	0	0	506	482	0	488	38	8	
12	0	0	0	0	507	482	0	492	39	7	
13	0	0	0	0	505	482	0	498	39	7	
14	0	0	0	0	498	483	0	497	39	7	
15	0	0	0	0	509	486	0	494	39	7	
0	0	0	0	0	504	487	0	494	38	7	
1	0	0	0	0	510	486	0	492	39	8	
2	0	0	0	0	509	484	0	496	38	8	
3	0	0	0	0	504	484	0	497	38	7	
4	0	0	0	0	513	485	0	497	39	7	
5	0	0	0	0	504	489	0	500	38	7	
6	0	0	0	0	505	487	0	497	39	7	
7	0	0	0	0	501	485	0	495	39	7	
8	0	0	0	0	503	485	0	491	39	7	
9	0	0	0	0	512	486	0	486	39	8	
10	0	0	0	0	512	489	0	489	38	8	
11	0	0	0	0	514	491	0	491	38	7	
12	0	0	0	0	505	493	0	496	39	7	
13	0	0	0	0	505	495	0	497	39	7	
14	0	0	0	0	512	498	0	504	39	7	
15	0	0	0	0	512	500	0	494	39	7	
0	0	0	0	0	505	500	0	487	39	7	
1	0	0	0	0	508	502	0	488	39	7	
2	0	0	0	0	501	504	0	490	38	8	
3	0	0	0	0	504	501	0	494	38	8	
4	0	0	0	0	500	497	0	503	38	8	
5	0	0	0	0	511	495	0	503	39	7	
6	0	0	0	0	511	495	0	515	38	7	
7	0	0	0	0	505	496	0	522	39	7	
8	0	0	0	0	512	499	0	531	39	7	
9	0	0	0	0	507	505	0	545	38	7	
10	0	0	0	0	505	507	0	565	39	8	
11	0	0	0	0	507	506	0	569	38	8	
12	0	0	0	0	508	505	0	583	39	7	
13	0	0	0	0	515	503	0	581	39	7	
14	0	0	0	0	509	502	0	581	39	7	
15	0	0	0	0	501	502	0	587	39	7	
0	0	0	0	0	507	501	0	574	39	7	
1	0	0	0	0	506	505	0	553	39	7	
2	0	0	0	0	506	507	0	536	39	7	
3	0	0	0	0	507	507	0	523	38	8	
4	0	0	0	0	511	506	0	512	39	7	
5	0	0	0	0	515	504	0	514	38	7	
6	0	0	0	0	505	503	0	537	38	7	
7	0	0	0	0	510	501	0	557	39	7	
8	0	0	0	0	515	502	0	552	38	7	
9	0	0	0	0	511	505	0	568	39	7	
10	0	0	0	0	498	507	0	569	39	7	
11	0	0	0	0	504	505	0	582	38	8	
12	0	0	0	0	506	508	0	582	39	8	
13	0	0	0	0	511	510	0	584	39	7	
14	0	0	0	0	510	510	0	591	39	7	
15	0	0	0	0	511	509	0	584	39	7	
0	0	0	0	0	507	508	0	590	39	7	
1	0	0	0	0	516	508	0	585	39	7	
2	0	0	0	0	518	512	0	585	38	7	
3	0	0	0	0	504	514	0	592	38	8	
4	0	0	0	0	504	511	0	587	39	8	
5	0	0	0	0	506	506	0	591	39	7	
6	0	0	0	0	507	506	0	582	39	7	
7	0	0	0	0	512	511	0	576	39	7	
8	0	0	0	0	504	512	0	578	39	7	
9	0	0	0	0	501	512	0	568	39	7	
10	0	0	0	0	516	513	0	561	38	7	
11	0	0	0	0	515	511	0	546	38	8	
12	0	0	0	0	508	514	0	533	39	8	
13	0	0	0	0	506	517	0	520	39	7	
14	0	0	0	0	508	518	0	513	39	7	
15	0	0	0	0	507	518	0	504	39	7	
0	0	0	0	0	512	517	0	496	39	7	
1	0	0	0	0	504	524	0	494	38	7	
2	0	0	0	0	499	526	0	492	39	7	
3	0	0	0	0	492	528	0	491	38	7	
4	0	0	0	0	505	526	0	489	39	8	
5	0	0	0	0	515	524	0	488	39	8	
6	0	0	0	0	505	525	0	488	38	8	
7	0	0	0	0	504	525	0	482	39	7	
8	0	0	0	0	505	527	0	481	39	7	
9	0	0	0	0	507	527	0	482	39	7	
10	0	0	0	0	515	525	0	480	39	7	
11	0	0	0	0	511	524	0	485	38	7	
12	0	0	0	0	500	521	0	488	39	8	
13	0	0	0	0	503	521	0	492	38	8	
14	0	0	0	0	508	524	0	490	39	8	
15	0	0	0	0	511	525	0	486	39	7	
0	0	0	0	0	504	528	0	485	38	7	
1	0	0	0	0	505	529	0	485	39	7	
2	0	0	0	0	508	531	0	486	39	7	
3	0	0	0	0	507	530	0	484	38	7	
4	0	0	0	0	506	530	0	483	39	8	
5	0	0	0	0	512	532	0	485	38	8	
6	0	0	0	0	504	533	0	494	39	8	
7	0	0	0	0	504	536	0	517	39	7	
8	0	0	0	0	505	540	0	529	39	7	
9	0	0	0	0	510	541	0	545	38	7	
10	0	0	0	0	506	542	0	555	38	7	
11	0	0	0	0	518	542	0	560	38	7	
12	0	0	0	0	504	542	0	569	38	7	
13	0	0	0	0	511	544	0	567	39	8	
14	0	0	0	0	504	550	0	573	38	8	
15	0	0	0	0	503	552	0	570	39	8	
0	0	0	0	0	508	548	0	560	38	7	
1	0	0	0	0	508	548	0	567	38	7	
2	0	0	0	0	502	550	0	560	39	7	
3	0	0	0	0	505	553	0	566	38	7	
4	0	0	0	0	507	557	0	569	38	7	
5	0	0	0	0	506	562	0	566	39	8	
6	0	0	0	0	504	563	0	572	39	8	
7	0	0	0	0	509	560	0	563	39	8	
8	0	0	0	0	504	558	0	555	39	7	
9	0	0	0	0	508	557	0	541	39	7	
10	0	0	0	0	507	559	0	525	39	7	
11	0	0	0	0	504	560	0	515	38	7	
12	0	0	0	0	501	560	0	505	39	7	
13	0	0	0	0	512	559	0	496	39	8	
14	0	0	0	0	512	563	0	493	38	8	
15	0	0	0	0	505	568	0	488	39	7	
0	0	0	0	0	507	566	0	486	39	7	
1	0	0	0	0	515	566	0	481	39	7	
2	0	0	0	0	512	566	0	477	39	7	
3	0	0	0	0	508	569	0	479	38	7	
4	0	0	0	0	505	569	0	480	39	7	
5	0	0	0	0	506	568	0	483	39	7	
6	0	0	0	0	504	571	0	483	39	8	
7	0	0	0	0	511	574	0	476	39	8	
8	0	0	0	0	511	579	0	475	38	8	
9	0	0	0	0	511	581	0	475	39	7	
10	0	0	0	0	508	583	0	478	38	7	
11	0	0	0	0	499	585	0	478	38	7	
12	0	0	0	0	504	587	0	476	39	7	
13	0	0	0	0	505	588	0	479	38	7	
14	0	0	0	0	505	586	0	479	39	8	
15	0	0	0	0	508	585	0	476	39	8	
0	0	0	0	0	505	583	0	476	39	8	
1	0	0	0	0	510	582	0	472	39	7	
2	0	0	0	0	506	584	0	478	38	7	
3	0	0	0	0	512	585	0	479	38	7	
4	0	0	0	0	517	586	0	488	39	7	
5	0	0	0	0	508	582	0	512	39	7	
6	0	0	0	0	511	581	0	524	39	8	
7	0	0	0	0	502	582	0	534	39	8	
8	0	0	0	0	502	583	0	548	39	7	
9	0	0	0	0	510	582	0	549	38	7	
10	0	0	0	0	509	577	0	560	38	7	
11	0	0	0	0	512	574	0	557	38	7	
12	0	0	0	0	509	571	0	556	39	7	
13	0	0	0	0	507	570	0	562	39	7	
14	0	0	0	0	506	571	0	553	39	7	
15	0	0	0	0	502	574	0	558	39	8	
0	0	0	0	0	509	575	0	556	39	8	
1	0	0	0	0	498	577	0	550	38	8	
2	0	0	0	0	513	575	0	537	39	7	
3	0	0	0	0	511	573	0	524	38	7	
4	0	0	0	0	503	570	0	512	38	7	
5	0	0	0	0	510	564	0	501	39	7	
6	0	0	0	0	507	561	0	496	39	7	
7	0	0	0	0	509	559	0	489	39	8	
8	0	0	0	0	511	557	0	482	38	8	
9	0	0	0	0	508	557	0	478	39	7	
10	0	0	0	0	511	556	0	474	39	7	
11	0	0	0	0	507	555	0	477	38	7	
12	0	0	0	0	502	551	0	478	39	7	
13	0	0	0	0	504	544	0	482	38	7	
14	0	0	0	0	512	542	0	483	38	7	
15	0	0	0	0	511	538	0	477	39	8	
0	0	0	0	0	508	540	0	478	38	8	
1	0	0	0	0	511	545	0	481	39	7	
2	0	0	0	0	505	545	0	486	39	7	
3	0	0	0	0	502	542	0	484	38	7	
4	0	0	0	0	509	542	0	484	39	7	
5	0	0	0	0	505	540	0	487	38	7	
6	0	0	0	0	504	532	0	486	39	7	
7	0	0	0	0	513	528	0	483	39	7	
8	0	0	0	0	500	525	0	482	39	8	
9	0	0	0	0	505	523	0	477	39	8	
10	0	0	0	0	504	524	0	480	38	8	
11	0	0	0	0	513	520	0	481	38	7	
12	0	0	0	0	507	515	0	484	38	7	
13	0	0	0	0	504	514	0	487	39	7	
14	0	0	0	0	508	510	0	505	38	7	
15	0	0	0	0	508	507	0	520	39	7	
0	0	0	0	0	507	505	0	528	39	8	
1	0	0	0	0	503	503	0	548	39	8	
2	0	0	0	0	505	500	0	554	39	7	
3	0	0	0	0	503	497	0	564	38	7	
4	0	0	0	0	504	493	0	567	38	7	
5	0	0	0	0	509	491	0	564	39	7	
6	0	0	0	0	502	489	0	571	39	7	
7	0	0	0	0	509	486	0	562	39	7	
8	0	0	0	0	506	483	0	566	38	8	
9	0	0	0	0	509	480	0	571	38	8	
10	0	0	0	0	507	478	0	568	39	7	
11	0	0	0	0	506	477	0	559	38	7	
12	0	0	0	0	516	480	0	543	39	7	
13	0	0	0	0	511	478	0	526	39	7	
14	0	0	0	0	511	478	0	518	39	7	
15	0	0	0	0	499	477	0	504	39	7	
0	0	0	0	0	508	479	0	500	39	7	
1	0	0	0	0	508	479	0	493	39	8	
2	0	0	0	0	505	478	0	488	39	8	
3	0	0	0	0	508	480	0	488	38	8	
4	0	0	0	0	504	477	0	486	39	7	
5	0	0	0	0	506	472	0	487	38	7	
6	0	0	0	0	511	466	0	485	39	7	
7	0	0	0	0	515	469	0	480	39	7	
8	0	0	0	0	507	471	0	481	38	7	
9	0	0	0	0	507	462	0	481	39	8	
10	0	0	0	0	508	458	0	483	38	8	
11	0	0	0	0	512	456	0	484	38	7	
12	0	0	0	0	508	454	0	483	39	7	
13	0	0	0	0	504	455	0	487	38	7	
14	0	0	0	0	507	455	0	483	39	7	
15	0	0	0	0	512	455	0	480	39	7	
0	0	0	0	0	497	453	0	478	39	7	
1	0	0	0	0	502	452	0	472	39	8	
2	0	0	0	0	509	456	0	479	38	8	
3	0	0	0	0	505	460	0	480	38	7	
4	0	0	0	0	507	464	0	483	39	7	
5	0	0	0	0	514	463	0	484	39	7	
6	0	0	0	0	509	461	0	483	39	7	
7	0	0	0	0	514	459	0	498	39	7	
8	0	0	0	0	510	456	0	516	39	7	
9	0	0	0	0	505	454	0	527	38	7	
10	0	0	0	0	502	454	0	546	38	8	
11	0	0	0	0	511	456	0	565	38	8	
12	0	0	0	0	506	457	0	564	39	7	
13	0	0	0	0	502	453	0	575	39	7	
14	0	0	0	0	505	453	0	568	39	7	
15	0	0	0	0	506	454	0	574	39	7	
0	0	0	0	0	506	455	0	569	39	7	
1	0	0	0	0	516	455	0	569	39	7	
2	0	0	0	0	502	457	0	578	39	8	
3	0	0	0	0	511	456	0	573	38	8	
4	0	0	0	0	514	455	0	569	39	8	
5	0	0	0	0	510	449	0	574	38	7	
6	0	0	0	0	514	448	0	573	39	7	
7	0	0	0	0	505	447	0	564	39	7	
8	0	0	0	0	504	445	0	554	39	7	
9	0	0	0	0	503	448	0	539	38	7	
10	0	0	0	0	505	451	0	524	38	8	
11	0	0	0	0	506	453	0	516	38	8	
12	0	0	0	0	507	455	0	506	39	8	
13	0	0	0	0	497	458	0	503	39	7	
14	0	0	0	0	502	460	0	497	39	7	
15	0	0	0	0	516	460	0	491	39	7	
0	0	0	0	0	508	462	0	488	38	7	
1	0	0	0	0	504	463	0	492	39	7	
2	0	0	0	0	512	466	0	490	38	7	
3	0	0	0	0	503	466	0	489	38	8	
4	0	0	0	0	516	464	0	488	39	8	
5	0	0	0	0	509	464	0	492	38	8	
6	0	0	0	0	506	463	0	491	39	7	
7	0	0	0	0	508	462	0	491	39	7	
8	0	0	0	0	503	461	0	488	39	7	
9	0	0	0	0	508	462	0	483	39	7	
10	0	0	0	0	515	463	0	485	38	7	
11	0	0	0	0	506	465	0	487	38	8	
12	0	0	0	0	507	467	0	493	39	8	
13	0	0	0	0	503	466	0	493	39	8	
14	0	0	0	0	507	465	0	493	39	7	
15	0	0	0	0	508	466	0	492	39	7	
0	0	0	0	0	504	465	0	489	39	7	
1	0	0	0	0	510	465	0	491	39	7	
2	0	0	0	0	506	465	0	492	38	7	
3	0	0	0	0	508	464	0	495	38	8	
4	0	0	0	0	508	466	0	514	38	8	
5	0	0	0	0	507	469	0	539	39	8	
6	0	0	0	0	504	472	0	548	39	8	
7	0	0	0	0	501	472	0	567	39	7	
8	0	0	0	0	514	471	0	568	39	7	
9	0	0	0	0	503	472	0	570	39	7	
10	0	0	0	0	501	474	0	580	39	7	
11	0	0	0	0	511	475	0	575	38	7	
12	0	0	0	0	506	479	0	583	39	8	
13	0	0	0	0	506	481	0	578	39	8	
14	0	0	0	0	507	483	0	574	39	8	
15	0	0	0	0	507	483	0	579	39	7	
0	0	0	0	0	507	480	0	572	39	7	
1	0	0	0	0	507	480	0	579	38	7	
2	0	0	0	0	512	480	0	575	39	7	
3	0	0	0	0	505	479	0	569	38	8	
4	0	0	0	0	512	476	0	558	39	8	
5	0	0	0	0	503	475	0	543	39	8	
6	0	0	0	0	506	475	0	528	38	8	
7	0	0	0	0	514	475	0	517	39	7	
8	0	0	0	0	509	477	0	509	38	7	
9	0	0	0	0	509	479	0	519	39	7	
10	0	0	0	0	500	481	0	504	38	7	
11	0	0	0	0	505	483	0	499	38	7	
12	0	0	0	0	511	481	0	497	39	8	
13	0	0	0	0	509	482	0	496	38	8	
14	0	0	0	0	504	482	0	491	39	8	
15	0	0	0	0	512	481	0	487	39	8	
0	0	0	0	0	503	481	0	484	39	7	
1	0	0	0	0	512	482	0	479	39	7	
2	0	0	0	0	501	481	0	482	38	7	
3	0	0	0	0	501	480	0	483	38	7	
4	0	0	0	0	506	482	0	487	39	7	
5	0	0	0	0	515	482	0	486	39	8	
6	0	0	0	0	510	480	0	485	39	8	
7	0	0	0	0	503	478	0	486	39	8	
8	0	0	0	0	505	479	0	483	39	7	
9	0	0	0	0	508	480	0	484	39	7	
10	0	0	0	0	503	482	0	485	39	7	
11	0	0	0	0	510	480	0	485	38	7	
12	0	0	0	0	511	480	0	489	38	7	
13	0	0	0	0	512	479	0	490	39	8	
14	0	0	0	0	514	479	0	495	38	8	
15	0	0	0	0	497	479	0	490	39	8	
0	0	0	0	0	516	481	0	485	39	7	
1	0	0	0	0	504	485	0	491	38	7	
2	0	0	0	0	503	487	0	492	39	7	
3	0	0	0	0	507	484	0	493	38	7	
4	0	0	0	0	508	483	0	490	39	7	
5	0	0	0	0	517	485	0	490	39	8	
6	0	0	0	0	500	489	0	492	38	8	
7	0	0	0	0	504	490	0	488	39	8	
8	0	0	0	0	503	492	0	487	39	8	
9	0	0	0	0	510	491	0	485	39	7	
10	0	0	0	0	511	491	0	485	39	7	
11	0	0	0	0	510	493	0	490	38	7	
12	0	0	0	0	506	495	0	492	39	7	
13	0	0	0	0	504	495	0	496	39	8	
14	0	0	0	0	504	496	0	496	39	8	
15	0	0	0	0	517	497	0	492	39	8	
0	0	0	0	0	504	499	0	490	38	8	
1	0	0	0	0	508	496	0	501	39	7	
2	0	0	0	0	508	496	0	529	38	7	
3	0	0	0	0	504	490	0	541	38	7	
4	0	0	0	0	507	485	0	559	38	7	
5	0	0	0	0	502	483	0	566	38	8	
6	0	0	0	0	512	485	0	564	39	8	
7	0	0	0	0	504	488	0	574	39	8	
8	0	0	0	0	508	487	0	566	39	8	
9	0	0	0	0	510	488	0	572	39	7	
10	0	0	0	0	507	491	0	578	39	7	
11	0	0	0	0	505	494	0	577	38	7	
12	0	0	0	0	502	496	0	585	39	7	
13	0	0	0	0	506	499	0	578	39	7	
14	0	0	0	0	508	497	0	581	39	8	
15	0	0	0	0	504	494	0	581	39	8	
0	0	0	0	0	512	496	0	578	39	8	
1	0	0	0	0	505	495	0	582	39	8	
2	0	0	0	0	507	491	0	573	39	7	
3	0	0	0	0	513	486	0	573	38	7	
4	0	0	0	0	518	487	0	572	39	7	
5	0	0	0	0	506	486	0	568	39	7	
6	0	0	0	0	510	485	0	575	39	8	
7	0	0	0	0	504	483	0	567	39	8	
8	0	0	0	0	509	485	0	558	39	8	
9	0	0	0	0	503	483	0	543	39	8	
10	0	0	0	0	507	483	0	527	39	7	
11	0	0	0	0	502	478	0	515	38	7	
12	0	0	0	0	505	472	0	504	39	7	
13	0	0	0	0	514	470	0	494	39	7	
14	0	0	0	0	511	476	0	490	38	8	
15	0	0	0	0	512	483	0	483	39	8	
0	0	0	0	0	507	487	0	478	39	8	
1	0	0	0	0	503	490	0	477	38	8	
2	0	0	0	0	514	490	0	470	39	7	
3	0	0	0	0	504	493	0	470	38	7	
4	0	0	0	0	509	495	0	470	39	7	
5	0	0	0	0	502	495	0	472	39	7	
6	0	0	0	0	511	496	0	473	39	7	
7	0	0	0	0	510	496	0	466	39	8	
8	0	0	0	0	502	496	0	467	38	8	
9	0	0	0	0	507	495	0	465	39	8	
10	0	0	0	0	510	493	0	471	38	8	
11	0	0	0	0	509	492	0	474	38	7	
12	0	0	0	0	509	494	0	470	39	7	
13	0	0	0	0	507	493	0	473	38	7	
14	0	0	0	0	502	491	0	471	39	7	
15	0	0	0	0	506	492	0	469	39	8	
0	0	0	0	0	499	494	0	468	39	8	
1	0	0	0	0	511	496	0	464	39	8	
2	0	0	0	0	510	496	0	480	38	8	
3	0	0	0	0	509	493	0	472	38	7	
4	0	0	0	0	504	493	0	479	39	7	
5	0	0	0	0	505	492	0	501	38	7	
6	0	0	0	0	517	492	0	512	39	7	
7	0	0	0	0	507	491	0	523	39	7	
8	0	0	0	0	507	490	0	537	39	8	
9	0	0	0	0	507	490	0	539	39	8	
10	0	0	0	0	507	493	0	551	38	8	
11	0	0	0	0	517	496	0	551	38	7	
12	0	0	0	0	502	496	0	553	38	7	
13	0	0	0	0	499	497	0	561	39	7	
14	0	0	0	0	508	500	0	553	38	7	
15	0	0	0	0	508	501	0	559	39	7	
0	0	0	0	0	508	501	0	557	39	8	
1	0	0	0	0	504	502	0	551	39	8	
2	0	0	0	0	503	502	0	539	39	8	
3	0	0	0	0	504	501	0	524	38	8	
4	0	0	0	0	500	502	0	513	38	7	
5	0	0	0	0	506	501	0	499	39	7	
6	0	0	0	0	504	502	0	490	39	7	
7	0	0	0	0	512	503	0	481	39	7	
8	0	0	0	0	508	503	0	475	38	7	
9	0	0	0	0	510	504	0	472	39	8	
10	0	0	0	0	511	504	0	467	39	8	
11	0	0	0	0	518	502	0	469	38	8	
12	0	0	0	0	504	501	0	472	38	7	
13	0	0	0	0	504	500	0	475	39	7	
14	0	0	0	0	511	497	0	475	39	7	
15	0	0	0	0	512	496	0	471	39	7	
0	0	0	0	0	507	499	0	472	38	7	
1	0	0	0	0	507	499	0	473	39	8	
2	0	0	0	0	511	500	0	477	38	8	
3	0	0	0	0	499	497	0	480	38	8	
4	0	0	0	0	509	499	0	479	39	7	
5	0	0	0	0	505	504	0	481	38	7	
6	0	0	0	0	502	508	0	482	39	7	
7	0	0	0	0	510	507	0	480	39	7	
8	0	0	0	0	503	503	0	478	39	7	
9	0	0	0	0	512	500	0	473	39	8	
10	0	0	0	0	501	502	0	478	38	8	
11	0	0	0	0	511	504	0	481	38	8	
12	0	0	0	0	506	505	0	484	39	8	
13	0	0	0	0	500	508	0	488	39	7	
14	0	0	0	0	508	508	0	505	39	7	
15	0	0	0	0	505	510	0	519	39	7	
0	0	0	0	0	513	509	0	527	39	7	
1	0	0	0	0	501	507	0	549	39	7	
2	0	0	0	0	513	504	0	555	39	8	
3	0	0	0	0	513	503	0	566	38	8	
4	0	0	0	0	508	503	0	570	38	8	
5	0	0	0	0	503	502	0	566	39	7	
6	0	0	0	0	505	504	0	575	39	7	
7	0	0	0	0	507	509	0	564	39	7	
8	0	0	0	0	504	512	0	566	39	7	
9	0	0	0	0	507	512	0	577	39	8	
10	0	0	0	0	504	510	0	569	39	8	
11	0	0	0	0	508	510	0	558	38	8	
12	0	0	0	0	505	510	0	536	39	8	
13	0	0	0	0	513	509	0	519	39	7	
14	0	0	0	0	507	511	0	505	38	7	
15	0	0	0	0	508	510	0	492	39	7	
0	0	0	0	0	505	509	0	484	39	7	
1	0	0	0	0	513	505	0	480	38	7	
2	0	0	0	0	509	505	0	478	39	8	
3	0	0	0	0	504	510	0	483	38	8	
4	0	0	0	0	497	511	0	486	39	8	
5	0	0	0	0	508	510	0	489	39	8	
6	0	0	0	0	508	511	0	489	39	7	
7	0	0	0	0	508	512	0	484	39	7	
8	0	0	0	0	504	514	0	487	38	7	
9	0	0	0	0	505	513	0	487	39	7	
10	0	0	0	0	517	514	0	492	39	7	
11	0	0	0	0	506	516	0	490	38	8	
12	0	0	0	0	513	516	0	491	39	8	
13	0	0	0	0	505	517	0	494	38	8	
14	0	0	0	0	499	513	0	494	39	7	
15	0	0	0	0	508	510	0	494	39	7	
0	0	0	0	0	503	509	0	493	39	7	
1	0	0	0	0	509	509	0	512	38	7	
2	0	0	0	0	508	510	0	532	38	7	
3	0	0	0	0	511	511	0	547	38	8	
4	0	0	0	0	502	511	0	571	39	8	
5	0	0	0	0	511	509	0	576	39	8	
6	0	0	0	0	511	508	0	585	39	8	
7	0	0	0	0	502	512	0	584	39	7	
8	0	0	0	0	508	512	0	580	39	7	
9	0	0	0	0	501	514	0	588	39	7	
10	0	0	0	0	504	511	0	582	39	7	
11	0	0	0	0	513	512	0	576	38	8	
12	0	0	0	0	514	514	0	562	38	8	
13	0	0	0	0	503	513	0	548	39	8	
14	0	0	0	0	507	511	0	536	39	8	
15	0	0	0	0	505	508	0	527	39	7	
0	0	0	0	0	512	500	0	518	39	7	
1	0	0	0	0	514	495	0	514	38	7	
2	0	0	0	0	511	496	0	510	39	7	
3	0	0	0	0	508	498	0	511	38	7	
4	0	0	0	0	499	500	0	508	39	8	
5	0	0	0	0	511	500	0	508	39	8	
6	0	0	0	0	499	504	0	507	38	8	
7	0	0	0	0	510	503	0	500	39	7	
8	0	0	0	0	508	499	0	499	39	7	
9	0	0	0	0	502	499	0	496	39	7	
10	0	0	0	0	510	502	0	499	39	7	
11	0	0	0	0	509	504	0	503	38	7	
12	0	0	0	0	504	504	0	503	39	8	
13	0	0	0	0	507	504	0	505	39	8	
14	0	0	0	0	510	504	0	503	39	8	
15	0	0	0	0	516	504	0	500	39	7	
0	0	0	0	0	504	503	0	500	38	7	
1	0	0	0	0	506	500	0	500	39	7	
2	0	0	0	0	505	497	0	506	39	7	
3	0	0	0	0	506	496	0	506	38	7	
4	0	0	0	0	505	496	0	508	39	8	
5	0	0	0	0	500	499	0	511	38	8	
6	0	0	0	0	509	502	0	510	39	8	
7	0	0	0	0	507	503	0	513	39	8	
8	0	0	0	0	511	499	0	535	39	7	
9	0	0	0	0	511	499	0	551	39	7	
10	0	0	0	0	505	500	0	566	39	7	
11	0	0	0	0	508	502	0	582	38	7	
12	0	0	0	0	507	504	0	581	39	7	
13	0	0	0	0	512	507	0	595	39	8	
14	0	0	0	0	515	508	0	591	39	8	
15	0	0	0	0	500	508	0	591	39	8	
0	0	0	0	0	505	507	0	593	39	7	
1	0	0	0	0	504	501	0	584	39	7	
2	0	0	0	0	512	496	0	591	38	7	
3	0	0	0	0	510	496	0	587	38	7	
4	0	0	0	0	505	496	0	580	38	8	
5	0	0	0	0	507	494	0	576	39	8	
6	0	0	0	0	508	495	0	585	39	8	
7	0	0	0	0	504	495	0	578	39	8	
8	0	0	0	0	511	495	0	572	38	7	
9	0	0	0	0	510	494	0	559	39	7	
10	0	0	0	0	506	491	0	544	39	7	
11	0	0	0	0	507	487	0	532	38	7	
12	0	0	0	0	511	486	0	523	39	7	
13	0	0	0	0	513	487	0	513	39	8	
14	0	0	0	0	508	494	0	511	38	8	
15	0	0	0	0	508	496	0	504	39	8	
0	0	0	0	0	504	499	0	498	39	8	
1	0	0	0	0	503	500	0	493	39	7	
2	0	0	0	0	508	500	0	492	39	7	
3	0	0	0	0	503	502	0	496	38	7	
4	0	0	0	0	513	503	0	494	39	7	
5	0	0	0	0	509	503	0	496	39	7	
6	0	0	0	0	500	504	0	494	39	8	
7	0	0	0	0	511	506	0	491	39	8	
8	0	0	0	0	508	510	0	489	38	8	
9	0	0	0	0	504	507	0	489	39	7	
10	0	0	0	0	507	504	0	491	39	7	
11	0	0	0	0	510	504	0	491	38	7	
12	0	0	0	0	508	503	0	491	39	7	
13	0	0	0	0	504	501	0	495	38	7	
14	0	0	0	0	504	498	0	492	39	8	
15	0	0	0	0	507	495	0	489	39	8	
0	0	0	0	0	507	488	0	485	39	8	
1	0	0	0	0	514	484	0	481	39	8	
2	0	0	0	0	504	483	0	483	38	7	
3	0	0	0	0	508	482	0	487	38	7	
4	0	0	0	0	508	485	0	495	39	7	
5	0	0	0	0	502	489	0	519	39	7	
6	0	0	0	0	513	491	0	530	39	8	
7	0	0	0	0	507	493	0	543	39	8	
8	0	0	0	0	508	494	0	559	39	8	
9	0	0	0	0	506	497	0	560	38	8	
10	0	0	0	0	505	499	0	572	38	7	
11	0	0	0	0	512	500	0	568	38	7	
12	0	0	0	0	507	507	0	566	39	7	
13	0	0	0	0	517	519	0	573	39	7	
14	0	0	0	0	509	528	0	566	39	8	
15	0	0	0	0	499	538	0	571	39	8	
0	0	0	0	0	512	551	0	568	39	8	
1	0	0	0	0	502	566	0	560	38	8	
2	0	0	0	0	508	584	0	547	39	7	
3	0	0	0	0	505	600	0	531	38	7	
4	0	0	0	0	504	615	0	515	38	7	
5	0	0	0	0	505	626	0	502	39	7	
6	0	0	0	0	511	637	0	494	38	8	
7	0	0	0	0	512	649	0	485	39	8	
8	0	0	0	0	507	660	0	480	39	8	
9	0	0	0	0	512	670	0	475	39	8	
10	0	0	0	0	515	679	0	469	39	8	
11	0	0	0	0	511	689	0	486	38	7	
12	0	0	0	0	507	698	0	472	39	7	
13	0	0	0	0	504	707	0	475	39	7	
14	0	0	0	0	501	713	0	475	39	7	
15	0	0	0	0	502	717	0	468	39	8	
0	0	0	0	0	508	720	0	467	38	8	
1	0	0	0	0	509	717	0	467	39	8	
2	0	0	0	0	500	712	0	472	38	8	
3	0	0	0	0	505	708	0	474	38	7	
4	0	0	0	0	511	700	0	470	39	7	
5	0	0	0	0	497	689	0	473	38	7	
6	0	0	0	0	509	676	0	472	39	7	
7	0	0	0	0	504	663	0	470	39	7	
8	0	0	0	0	510	648	0	470	39	8	
9	0	0	0	0	512	636	0	463	39	8	
10	0	0	0	0	504	624	0	466	38	8	
11	0	0	0	0	508	610	0	466	38	7	
12	0	0	0	0	506	594	0	474	38	7	
13	0	0	0	0	504	575	0	474	39	7	
14	0	0	0	0	515	558	0	467	39	7	
15	0	0	0	0	512	539	0	479	39	7	
0	0	0	0	0	499	518	0	497	39	8	
1	0	0	0	0	512	498	0	509	38	8	
2	0	0	0	0	500	481	0	527	38	8	
3	0	0	0	0	514	468	0	537	38	7	
4	0	0	0	0	513	454	0	542	39	7	
5	0	0	0	0	502	440	0	550	39	7	
6	0	0	0	0	505	426	0	543	39	7	
7	0	0	0	0	504	412	0	548	39	7	
8	0	0	0	0	513	403	0	543	39	8	
9	0	0	0	0	504	399	0	542	39	8	
10	0	0	0	0	508	398	0	549	39	8	
11	0	0	0	0	507	397	0	544	38	7	
12	0	0	0	0	508	396	0	539	39	7	
13	0	0	0	0	507	394	0	542	38	7	
14	0	0	0	0	507	395	0	540	39	7	
15	0	0	0	0	508	397	0	531	39	7	
0	0	0	0	0	504	403	0	523	39	7	
1	0	0	0	0	507	410	0	507	38	8	
2	0	0	0	0	512	414	0	492	39	8	
3	0	0	0	0	507	417	0	483	38	8	
4	0	0	0	0	505	421	0	471	39	7	
5	0	0	0	0	502	425	0	467	39	7	
6	0	0	0	0	502	427	0	463	39	7	
7	0	0	0	0	509	431	0	455	39	7	
8	0	0	0	0	507	433	0	453	38	7	
9	0	0	0	0	512	436	0	450	39	8	
10	0	0	0	0	505	441	0	456	39	8	
11	0	0	0	0	500	442	0	459	38	8	
12	0	0	0	0	512	447	0	455	39	7	
13	0	0	0	0	510	449	0	456	38	7	
14	0	0	0	0	509	448	0	452	39	7	
15	0	0	0	0	504	450	0	467	39	7	
0	0	0	0	0	508	451	0	453	39	7	
1	0	0	0	0	507	456	0	449	39	8	
2	0	0	0	0	513	462	0	449	38	8	
3	0	0	0	0	508	465	0	448	38	8	
4	0	0	0	0	509	468	0	455	39	7	
5	0	0	0	0	500	472	0	457	39	7	
6	0	0	0	0	511	476	0	456	39	7	
7	0	0	0	0	510	479	0	458	39	7	
8	0	0	0	0	507	479	0	452	39	7	
9	0	0	0	0	508	480	0	457	39	7	
10	0	0	0	0	505	483	0	462	38	8	
11	0	0	0	0	516	484	0	460	38	8	
12	0	0	0	0	508	485	0	468	38	8	
13	0	0	0	0	504	483	0	469	39	7	
14	0	0	0	0	505	485	0	472	39	7	
15	0	0	0	0	503	487	0	473	39	7	
0	0	0	0	0	509	489	0	463	39	7	
1	0	0	0	0	512	489	0	466	38	7	
2	0	0	0	0	506	490	0	468	39	8	
3	0	0	0	0	508	490	0	473	38	8	
4	0	0	0	0	497	490	0	476	39	8	
5	0	0	0	0	504	492	0	474	39	7	
6	0	0	0	0	505	490	0	490	39	7	
7	0	0	0	0	512	486	0	512	39	7	
8	0	0	0	0	511	479	0	522	39	7	
9	0	0	0	0	502	481	0	543	38	7	
10	0	0	0	0	519	484	0	548	39	7	
11	0	0	0	0	504	488	0	553	38	8	
12	0	0	0	0	505	488	0	563	39	7	
13	0	0	0	0	506	487	0	559	39	7	
14	0	0	0	0	503	487	0	568	38	7	
15	0	0	0	0	511	487	0	564	39	7	
0	0	0	0	0	509	488	0	563	39	7	
1	0	0	0	0	502	488	0	568	39	7	
2	0	0	0	0	518	493	0	560	38	7	
3	0	0	0	0	507	495	0	568	38	8	
4	0	0	0	0	515	497	0	568	38	8	
5	0	0	0	0	507	501	0	567	38	8	
6	0	0	0	0	509	500	0	571	39	7	
7	0	0	0	0	503	502	0	558	39	7	
8	0	0	0	0	507	504	0	549	38	7	
9	0	0	0	0	506	502	0	533	39	7	
10	0	0	0	0	504	499	0	517	38	7	
11	0	0	0	0	509	498	0	503	38	8	
12	0	0	0	0	505	496	0	496	39	8	
13	0	0	0	0	502	496	0	490	38	8	
14	0	0	0	0	513	499	0	484	39	7	
15	0	0	0	0	511	500	0	481	39	7	
0	0	0	0	0	509	499	0	475	39	7	
1	0	0	0	0	502	500	0	481	39	7	
2	0	0	0	0	509	500	0	506	38	7	
3	0	0	0	0	509	502	0	523	38	8	
4	0	0	0	0	505	504	0	537	39	8	
5	0	0	0	0	505	505	0	556	39	8	
6	0	0	0	0	504	504	0	556	38	7	
7	0	0	0	0	508	504	0	553	39	7	
8	0	0	0	0	516	505	0	539	38	7	
9	0	0	0	0	508	508	0	528	38	7	
10	0	0	0	0	508	507	0	513	39	7	
11	0	0	0	0	504	506	0	505	38	7	
12	0	0	0	0	501	510	0	497	38	8	
13	0	0	0	0	505	509	0	493	39	8	
14	0	0	0	0	514	508	0	494	38	8	
15	0	0	0	0	504	508	0	492	39	7	
0	0	0	0	0	505	507	0	491	39	7	
1	0	0	0	0	508	505	0	489	39	7	
2	0	0	0	0	508	504	0	489	39	7	
3	0	0	0	0	508	505	0	491	38	7	
4	0	0	0	0	510	507	0	492	39	8	
5	0	0	0	0	507	508	0	496	39	8	
6	0	0	0	0	509	508	0	494	39	8	
7	0	0	0	0	515	509	0	490	39	7	
8	0	0	0	0	501	511	0	492	38	7	
9	0	0	0	0	504	511	0	493	39	7	
10	0	0	0	0	500	511	0	497	39	7	
11	0	0	0	0	508	512	0	496	38	7	
12	0	0	0	0	504	512	0	499	39	7	
13	0	0	0	0	508	515	0	504	38	8	
14	0	0	0	0	504	515	0	502	39	7	
15	0	0	0	0	506	516	0	502	39	7	
0	0	0	0	0	500	518	0	498	39	7	
1	0	0	0	0	520	518	0	497	39	7	
2	0	0	0	0	511	520	0	500	38	7	
3	0	0	0	0	505	520	0	511	38	7	
4	0	0	0	0	505	517	0	542	39	7	
5	0	0	0	0	511	514	0	548	39	8	
6	0	0	0	0	511	516	0	565	39	8	
7	0	0	0	0	509	524	0	576	39	8	
8	0	0	0	0	504	526	0	578	39	7	
9	0	0	0	0	503	528	0	588	39	7	
10	0	0	0	0	513	527	0	579	39	7	
11	0	0	0	0	506	524	0	583	38	7	
12	0	0	0	0	507	522	0	589	39	7	
13	0	0	0	0	515	521	0	581	39	8	
14	0	0	0	0	500	520	0	588	39	8	
15	0	0	0	0	514	522	0	579	39	8	
0	0	0	0	0	507	522	0	571	39	7	
1	0	0	0	0	509	522	0	556	38	7	
2	0	0	0	0	502	519	0	539	39	7	
3	0	0	0	0	510	518	0	527	38	7	
4	0	0	0	0	504	520	0	516	38	7	
5	0	0	0	0	513	523	0	506	39	7	
6	0	0	0	0	504	527	0	503	38	8	
7	0	0	0	0	509	530	0	497	39	7	
8	0	0	0	0	508	535	0	495	39	7	
9	0	0	0	0	500	539	0	488	39	7	
10	0	0	0	0	510	540	0	487	39	7	
11	0	0	0	0	502	543	0	492	38	7	
12	0	0	0	0	511	544	0	492	39	7	
13	0	0	0	0	508	542	0	493	39	7	
14	0	0	0	0	502	542	0	492	39	8	
15	0	0	0	0	512	544	0	488	39	8	
0	0	0	0	0	508	547	0	489	38	8	
1	0	0	0	0	509	550	0	490	39	7	
2	0	0	0	0	503	551	0	494	38	7	
3	0	0	0	0	507	552	0	494	38	7	
4	0	0	0	0	503	550	0	495	39	7	
5	0	0	0	0	507	551	0	497	38	7	
6	0	0	0	0	504	553	0	495	39	8	
7	0	0	0	0	506	553	0	495	39	8	
8	0	0	0	0	506	552	0	504	39	8	
9	0	0	0	0	516	553	0	491	39	7	
10	0	0	0	0	504	553	0	492	38	7	
11	0	0	0	0	506	554	0	493	38	7	
12	0	0	0	0	509	553	0	502	39	7	
13	0	0	0	0	504	553	0	525	38	7	
14	0	0	0	0	512	558	0	536	39	8	
15	0	0	0	0	498	560	0	547	39	8	
0	0	0	0	0	510	561	0	561	39	8	
1	0	0	0	0	507	565	0	563	39	8	
2	0	0	0	0	505	571	0	574	39	7	
3	0	0	0	0	511	569	0	572	38	7	
4	0	0	0	0	508	567	0	572	39	7	
5	0	0	0	0	511	568	0	578	39	7	
6	0	0	0	0	510	570	0	573	39	7	
7	0	0	0	0	503	569	0	583	39	8	
8	0	0	0	0	515	568	0	577	39	8	
9	0	0	0	0	505	571	0	569	38	8	
10	0	0	0	0	502	576	0	555	39	7	
11	0	0	0	0	509	577	0	540	38	7	
12	0	0	0	0	505	578	0	524	38	7	
13	0	0	0	0	509	580	0	511	39	7	
14	0	0	0	0	499	582	0	503	38	7	
15	0	0	0	0	504	579	0	494	39	8	
0	0	0	0	0	502	580	0	488	38	8	
1	0	0	0	0	506	579	0	483	38	8	
2	0	0	0	0	518	577	0	477	39	7	
3	0	0	0	0	511	579	0	479	38	7	
4	0	0	0	0	507	577	0	478	39	7	
5	0	0	0	0	506	578	0	479	38	7	
6	0	0	0	0	500	580	0	480	39	7	
7	0	0	0	0	510	575	0	472	39	8	
8	0	0	0	0	504	574	0	472	38	8	
9	0	0	0	0	508	571	0	472	39	8	
10	0	0	0	0	507	570	0	475	38	8	
11	0	0	0	0	500	568	0	477	38	7	
12	0	0	0	0	518	568	0	476	39	7	
13	0	0	0	0	503	571	0	479	38	7	
14	0	0	0	0	507	571	0	478	39	7	
15	0	0	0	0	506	569	0	475	39	7	
0	0	0	0	0	509	568	0	476	38	8	
1	0	0	0	0	511	567	0	472	39	8	
2	0	0	0	0	505	568	0	475	38	8	
3	0	0	0	0	507	568	0	477	38	7	
4	0	0	0	0	505	566	0	481	38	7	
5	0	0	0	0	512	561	0	485	39	7	
6	0	0	0	0	507	557	0	513	39	7	
7	0	0	0	0	506	553	0	518	39	7	
8	0	0	0	0	500	550	0	524	39	8	
9	0	0	0	0	503	547	0	547	39	8	
10	0	0	0	0	510	547	0	548	39	8	
11	0	0	0	0	508	545	0	558	38	8	
12	0	0	0	0	510	546	0	561	39	7	
13	0	0	0	0	509	547	0	558	39	7	
14	0	0	0	0	510	545	0	564	39	7	
15	0	0	0	0	508	542	0	553	39	7	
0	0	0	0	0	503	540	0	556	38	8	
1	0	0	0	0	504	538	0	556	38	8	
2	0	0	0	0	513	534	0	552	38	8	
3	0	0	0	0	505	530	0	563	38	7	
4	0	0	0	0	506	527	0	560	39	7	
5	0	0	0	0	507	523	0	563	38	7	
6	0	0	0	0	500	520	0	558	39	7	
7	0	0	0	0	508	519	0	551	39	7	
8	0	0	0	0	504	518	0	539	39	7	
9	0	0	0	0	509	518	0	522	38	8	
10	0	0	0	0	512	516	0	504	38	8	
11	0	0	0	0	506	515	0	497	38	8	
12	0	0	0	0	504	512	0	488	39	7	
13	0	0	0	0	509	509	0	483	39	7	
14	0	0	0	0	508	506	0	479	39	7	
15	0	0	0	0	512	506	0	469	39	7	
0	0	0	0	0	508	510	0	467	38	7	
1	0	0	0	0	502	513	0	466	39	8	
2	0	0	0	0	509	512	0	467	39	8	
3	0	0	0	0	506	510	0	468	38	8	
4	0	0	0	0	514	506	0	461	39	7	
5	0	0	0	0	506	504	0	463	38	7	
6	0	0	0	0	508	498	0	462	39	7	
7	0	0	0	0	510	494	0	462	39	7	
8	0	0	0	0	505	490	0	465	39	7	
9	0	0	0	0	508	485	0	483	38	7	
10	0	0	0	0	505	481	0	505	38	8	
11	0	0	0	0	508	476	0	516	38	8	
12	0	0	0	0	502	473	0	536	38	7	
13	0	0	0	0	501	476	0	536	39	7	
14	0	0	0	0	508	480	0	543	39	7	
15	0	0	0	0	510	480	0	544	39	7	
0	0	0	0	0	515	478	0	536	39	7	
1	0	0	0	0	516	475	0	528	39	7	
2	0	0	0	0	506	472	0	514	39	8	
3	0	0	0	0	514	468	0	499	38	8	
4	0	0	0	0	506	467	0	494	38	8	
5	0	0	0	0	504	467	0	486	39	7	
6	0	0	0	0	514	467	0	481	39	7	
7	0	0	0	0	504	464	0	477	39	7	
8	0	0	0	0	512	464	0	469	39	7	
9	0	0	0	0	506	464	0	472	38	7	
10	0	0	0	0	511	464	0	470	39	8	
11	0	0	0	0	498	463	0	469	38	8	
12	0	0	0	0	502	463	0	470	39	8	
13	0	0	0	0	512	463	0	463	39	7	
14	0	0	0	0	509	468	0	465	39	7	
15	0	0	0	0	505	466	0	459	39	7	
0	0	0	0	0	507	463	0	460	39	7	
1	0	0	0	0	505	459	0	462	39	7	
2	0	0	0	0	512	455	0	458	38	7	
3	0	0	0	0	508	451	0	464	38	8	
4	0	0	0	0	500	450	0	464	39	7	
5	0	0	0	0	504	448	0	468	38	8	
6	0	0	0	0	504	446	0	471	38	7	
7	0	0	0	0	508	446	0	465	39	7	
8	0	0	0	0	505	451	0	478	38	7	
9	0	0	0	0	506	455	0	471	39	7	
10	0	0	0	0	509	460	0	472	39	7	
11	0	0	0	0	504	462	0	475	38	8	
12	0	0	0	0	508	461	0	473	39	8	
13	0	0	0	0	512	462	0	476	38	8	
14	0	0	0	0	511	460	0	487	39	7	
15	0	0	0	0	508	462	0	510	39	7	
0	0	0	0	0	505	461	0	520	39	7	
1	0	0	0	0	507	461	0	538	39	7	
2	0	0	0	0	506	460	0	551	38	7	
3	0	0	0	0	499	457	0	556	38	8	
4	0	0	0	0	508	458	0	571	39	8	
5	0	0	0	0	512	459	0	569	39	8	
6	0	0	0	0	504	457	0	572	38	8	
7	0	0	0	0	503	458	0	568	39	7	
8	0	0	0	0	507	457	0	569	39	7	
9	0	0	0	0	507	460	0	568	39	7	
10	0	0	0	0	510	459	0	559	39	7	
11	0	0	0	0	504	456	0	551	38	7	
12	0	0	0	0	511	458	0	538	39	8	
13	0	0	0	0	510	459	0	524	39	8	
14	0	0	0	0	510	457	0	514	39	8	
15	0	0	0	0	509	455	0	504	39	7	
0	0	0	0	0	505	455	0	495	39	7	
1	0	0	0	0	507	459	0	491	38	7	
2	0	0	0	0	512	458	0	486	39	7	
3	0	0	0	0	504	457	0	486	38	7	
4	0	0	0	0	502	457	0	484	39	8	
5	0	0	0	0	508	459	0	482	39	8	
6	0	0	0	0	503	460	0	483	38	8	
7	0	0	0	0	503	460	0	479	39	7	
8	0	0	0	0	502	463	0	476	38	7	
9	0	0	0	0	516	463	0	480	38	7	
10	0	0	0	0	509	463	0	478	39	7	
11	0	0	0	0	509	464	0	481	38	7	
12	0	0	0	0	509	465	0	481	39	8	
13	0	0	0	0	510	464	0	483	38	8	
14	0	0	0	0	509	465	0	483	39	8	
15	0	0	0	0	505	468	0	476	39	7	
0	0	0	0	0	507	472	0	476	38	7	
1	0	0	0	0	505	475	0	476	39	7	
2	0	0	0	0	511	477	0	478	39	7	
3	0	0	0	0	504	477	0	479	38	7	
4	0	0	0	0	510	476	0	478	39	7	
5	0	0	0	0	506	477	0	483	38	8	
6	0	0	0	0	504	475	0	483	39	7	
7	0	0	0	0	502	472	0	482	39	7	
8	0	0	0	0	509	470	0	480	39	7	
9	0	0	0	0	502	471	0	476	39	7	
10	0	0	0	0	505	477	0	483	38	7	
11	0	0	0	0	508	481	0	484	38	7	
12	0	0	0	0	514	480	0	486	39	7	
13	0	0	0	0	504	479	0	488	39	8	
14	0	0	0	0	510	476	0	485	39	8	
15	0	0	0	0	508	476	0	483	39	8	
0	0	0	0	0	499	476	0	482	39	7	
1	0	0	0	0	502	475	0	485	39	7	
2	0	0	0	0	511	474	0	488	38	7	
3	0	0	0	0	508	472	0	491	38	7	
4	0	0	0	0	503	475	0	501	38	7	
5	0	0	0	0	505	477	0	499	39	7	
6	0	0	0	0	501	480	0	503	39	8	
7	0	0	0	0	500	479	0	496	39	8	
8	0	0	0	0	519	478	0	492	39	7	
9	0	0	0	0	515	481	0	497	38	7	
10	0	0	0	0	507	483	0	499	39	7	
11	0	0	0	0	503	486	0	504	38	7	
12	0	0	0	0	501	484	0	502	39	7	
13	0	0	0	0	504	481	0	504	39	7	
14	0	0	0	0	509	479	0	504	39	8	
15	0	0	0	0	511	479	0	500	39	7	
0	0	0	0	0	514	480	0	500	39	7	
1	0	0	0	0	504	483	0	497	38	7	
2	0	0	0	0	513	483	0	498	39	7	
3	0	0	0	0	510	483	0	502	38	7	
4	0	0	0	0	510	485	0	512	39	7	
5	0	0	0	0	504	489	0	509	38	7	
6	0	0	0	0	508	492	0	504	39	8	
7	0	0	0	0	516	493	0	500	39	8	
8	0	0	0	0	513	492	0	500	38	8	
9	0	0	0	0	504	488	0	511	39	7	
10	0	0	0	0	505	487	0	541	39	7	
11	0	0	0	0	508	487	0	557	38	7	
12	0	0	0	0	505	485	0	575	39	7	
13	0	0	0	0	500	484	0	583	39	7	
14	0	0	0	0	499	483	0	581	39	8	
15	0	0	0	0	507	483	0	591	39	7	
0	0	0	0	0	512	484	0	586	39	8	
1	0	0	0	0	509	483	0	590	38	8	
2	0	0	0	0	504	481	0	590	38	7	
3	0	0	0	0	503	482	0	584	38	7	
4	0	0	0	0	504	483	0	592	38	7	
5	0	0	0	0	504	482	0	587	39	7	
6	0	0	0	0	504	482	0	588	39	7	
7	0	0	0	0	510	483	0	587	39	8	
8	0	0	0	0	517	481	0	579	39	8	
9	0	0	0	0	503	481	0	586	39	7	
10	0	0	0	0	505	481	0	578	39	7	
11	0	0	0	0	513	482	0	583	38	7	
12	0	0	0	0	505	486	0	588	38	7	
13	0	0	0	0	508	491	0	585	38	7	
14	0	0	0	0	508	494	0	591	39	7	
15	0	0	0	0	502	494	0	574	39	8	
0	0	0	0	0	513	493	0	557	39	8	
1	0	0	0	0	514	493	0	536	38	8	
2	0	0	0	0	509	491	0	520	39	7	
3	0	0	0	0	504	487	0	518	38	7	
4	0	0	0	0	506	484	0	535	39	7	
5	0	0	0	0	507	483	0	543	39	7	
6	0	0	0	0	502	487	0	551	39	7	
7	0	0	0	0	504	489	0	564	39	7	
8	0	0	0	0	510	489	0	561	39	8	
9	0	0	0	0	516	487	0	572	38	7	
10	0	0	0	0	510	484	0	578	39	7	
11	0	0	0	0	508	484	0	580	38	7	
12	0	0	0	0	511	482	0	588	39	7	
13	0	0	0	0	504	481	0	579	39	7	
14	0	0	0	0	500	477	0	583	39	7	
15	0	0	0	0	508	476	0	579	39	7	
0	0	0	0	0	503	478	0	572	39	8	
1	0	0	0	0	514	480	0	557	39	7	
2	0	0	0	0	500	479	0	545	39	7	
3	0	0	0	0	504	478	0	529	38	7	
4	0	0	0	0	509	481	0	515	39	7	
5	0	0	0	0	511	482	0	506	38	7	
6	0	0	0	0	513	483	0	499	39	7	
7	0	0	0	0	500	483	0	496	39	7	
8	0	0	0	0	508	485	0	490	38	8	
9	0	0	0	0	512	487	0	486	39	8	
10	0	0	0	0	502	491	0	488	38	8	
11	0	0	0	0	504	494	0	489	38	7	
12	0	0	0	0	506	493	0	491	39	7	
13	0	0	0	0	503	492	0	490	39	7	
14	0	0	0	0	511	491	0	488	39	7	
15	0	0	0	0	506	489	0	487	39	7	
0	0	0	0	0	506	488	0	484	39	7	
1	0	0	0	0	509	491	0	485	39	8	
2	0	0	0	0	512	495	0	492	39	7	
3	0	0	0	0	505	495	0	489	38	7	
4	0	0	0	0	509	495	0	492	38	7	
5	0	0	0	0	498	492	0	494	39	7	
6	0	0	0	0	498	491	0	498	39	7	
7	0	0	0	0	508	489	0	492	39	7	
8	0	0	0	0	508	488	0	486	39	7	
9	0	0	0	0	511	487	0	487	38	8	
10	0	0	0	0	508	485	0	487	39	7	
11	0	0	0	0	505	484	0	491	38	7	
12	0	0	0	0	511	486	0	493	39	7	
13	0	0	0	0	509	486	0	513	38	7	
14	0	0	0	0	502	487	0	528	39	7	
15	0	0	0	0	511	489	0	534	39	7	
0	0	0	0	0	505	491	0	555	39	7	
1	0	0	0	0	503	495	0	557	39	8	
2	0	0	0	0	511	499	0	567	39	8	
3	0	0	0	0	511	499	0	571	38	8	
4	0	0	0	0	510	499	0	569	38	7	
5	0	0	0	0	502	499	0	578	39	7	
6	0	0	0	0	508	496	0	566	39	7	
7	0	0	0	0	511	495	0	567	39	7	
8	0	0	0	0	501	492	0	564	39	7	
9	0	0	0	0	510	489	0	557	39	7	
10	0	0	0	0	507	490	0	547	38	7	
11	0	0	0	0	506	498	0	531	38	8	
12	0	0	0	0	512	502	0	516	38	7	
13	0	0	0	0	504	502	0	507	38	7	
14	0	0	0	0	504	498	0	506	39	7	
15	0	0	0	0	508	493	0	492	39	7	
0	0	0	0	0	505	491	0	484	38	7	
1	0	0	0	0	513	490	0	474	39	7	
2	0	0	0	0	509	492	0	475	38	8	
3	0	0	0	0	504	494	0	475	38	7	
4	0	0	0	0	504	495	0	475	38	7	
5	0	0	0	0	514	493	0	477	39	7	
6	0	0	0	0	509	493	0	471	39	7	
7	0	0	0	0	509	494	0	470	39	7	
8	0	0	0	0	506	493	0	468	39	7	
9	0	0	0	0	507	495	0	470	38	7	
10	0	0	0	0	508	492	0	472	39	8	
11	0	0	0	0	509	493	0	471	38	8	
12	0	0	0	0	511	494	0	475	38	8	
13	0	0	0	0	504	492	0	483	39	7	
14	0	0	0	0	505	491	0	482	38	7	
15	0	0	0	0	507	490	0	479	39	7	
0	0	0	0	0	511	487	0	471	39	7	
1	0	0	0	0	509	488	0	475	38	7	
2	0	0	0	0	514	489	0	476	39	7	
3	0	0	0	0	510	493	0	478	38	8	
4	0	0	0	0	504	496	0	479	39	8	
5	0	0	0	0	514	498	0	480	39	7	
6	0	0	0	0	506	499	0	496	39	7	
7	0	0	0	0	504	498	0	515	39	7	
8	0	0	0	0	504	500	0	524	39	7	
9	0	0	0	0	509	500	0	541	39	7	
10	0	0	0	0	516	504	0	548	39	7	
11	0	0	0	0	505	504	0	553	38	7	
12	0	0	0	0	503	505	0	573	39	7	
13	0	0	0	0	510	506	0	560	39	7	
14	0	0	0	0	507	506	0	564	39	7	
15	0	0	0	0	510	502	0	556	39	7	
0	0	0	0	0	503	499	0	551	39	7	
1	0	0	0	0	505	496	0	558	39	7	
2	0	0	0	0	508	492	0	551	38	7	
3	0	0	0	0	500	491	0	544	38	8	
4	0	0	0	0	513	491	0	527	38	7	
5	0	0	0	0	506	493	0	514	38	8	
6	0	0	0	0	508	496	0	512	39	7	
7	0	0	0	0	500	497	0	493	39	7	
8	0	0	0	0	506	497	0	484	39	7	
9	0	0	0	0	512	497	0	471	39	7	
10	0	0	0	0	505	497	0	471	38	7	
11	0	0	0	0	512	494	0	469	38	7	
12	0	0	0	0	503	493	0	471	39	7	
13	0	0	0	0	510	493	0	472	39	7	
14	0	0	0	0	515	492	0	467	39	7	
15	0	0	0	0	513	493	0	468	39	7	
0	0	0	0	0	507	494	0	464	39	7	
1	0	0	0	0	510	496	0	465	39	7	
2	0	0	0	0	505	498	0	469	39	7	
3	0	0	0	0	505	497	0	465	38	7	
4	0	0	0	0	508	499	0	473	38	8	
5	0	0	0	0	504	504	0	473	39	7	
6	0	0	0	0	511	507	0	476	38	8	
7	0	0	0	0	506	504	0	475	39	7	
8	0	0	0	0	510	505	0	470	39	7	
9	0	0	0	0	505	507	0	476	38	7	
10	0	0	0	0	512	504	0	478	39	7	
11	0	0	0	0	507	504	0	479	38	7	
12	0	0	0	0	512	505	0	481	39	8	
13	0	0	0	0	512	508	0	483	39	7	
14	0	0	0	0	504	509	0	483	39	8	
15	0	0	0	0	504	507	0	488	39	7	
0	0	0	0	0	501	505	0	510	39	7	
1	0	0	0	0	508	502	0	519	39	7	
2	0	0	0	0	508	497	0	537	38	7	
3	0	0	0	0	516	497	0	550	38	7	
4	0	0	0	0	513	498	0	554	39	7	
5	0	0	0	0	503	498	0	570	39	7	
6	0	0	0	0	500	496	0	564	39	8	
7	0	0	0	0	507	497	0	568	39	8	
8	0	0	0	0	510	498	0	567	39	7	
9	0	0	0	0	509	500	0	561	39	7	
10	0	0	0	0	508	502	0	569	39	7	
11	0	0	0	0	510	502	0	562	38	7	
12	0	0	0	0	508	503	0	563	39	7	
13	0	0	0	0	512	504	0	559	39	7	
14	0	0	0	0	496	503	0	566	39	7	
15	0	0	0	0	506	503	0	558	39	8	
0	0	0	0	0	507	502	0	561	38	7	
1	0	0	0	0	515	501	0	560	39	7	
2	0	0	0	0	502	502	0	553	39	7	
3	0	0	0	0	506	500	0	543	38	7	
4	0	0	0	0	506	497	0	529	39	7	
5	0	0	0	0	504	499	0	515	39	8	
6	0	0	0	0	502	500	0	504	39	8	
7	0	0	0	0	506	501	0	494	39	8	
8	0	0	0	0	510	504	0	487	39	7	
9	0	0	0	0	509	507	0	485	38	7	
10	0	0	0	0	504	504	0	482	38	7	
11	0	0	0	0	512	502	0	479	38	7	
12	0	0	0	0	502	505	0	483	38	7	
13	0	0	0	0	508	504	0	482	39	7	
14	0	0	0	0	505	505	0	481	39	8	
15	0	0	0	0	503	504	0	483	39	7	
0	0	0	0	0	512	504	0	475	39	7	
1	0	0	0	0	516	505	0	477	38	7	
2	0	0	0	0	505	504	0	477	39	7	
3	0	0	0	0	506	504	0	480	38	7	
4	0	0	0	0	503	508	0	481	39	7	
5	0	0	0	0	511	508	0	479	39	7	
6	0	0	0	0	511	509	0	480	39	8	
7	0	0	0	0	510	505	0	475	39	7	
8	0	0	0	0	497	499	0	472	39	7	
9	0	0	0	0	503	498	0	473	39	7	
10	0	0	0	0	508	500	0	471	39	7	
11	0	0	0	0	509	502	0	475	38	7	
12	0	0	0	0	505	501	0	477	39	7	
13	0	0	0	0	508	499	0	493	39	7	
14	0	0	0	0	508	499	0	483	39	8	
15	0	0	0	0	517	499	0	479	39	8	
0	0	0	0	0	508	499	0	494	39	8	
1	0	0	0	0	504	501	0	521	39	7	
2	0	0	0	0	511	504	0	532	39	7	
3	0	0	0	0	509	508	0	550	38	7	
4	0	0	0	0	515	512	0	556	39	7	
5	0	0	0	0	507	513	0	561	39	7	
6	0	0	0	0	502	512	0	567	39	7	
7	0	0	0	0	506	512	0	559	39	8	
8	0	0	0	0	508	512	0	565	38	8	
9	0	0	0	0	510	512	0	568	39	7	
10	0	0	0	0	499	513	0	568	39	7	
11	0	0	0	0	507	515	0	575	38	7	
12	0	0	0	0	506	514	0	567	39	7	
13	0	0	0	0	511	510	0	575	38	7	
14	0	0	0	0	512	512	0	568	39	7	
15	0	0	0	0	502	516	0	559	39	8	
0	0	0	0	0	500	517	0	545	39	7	
1	0	0	0	0	499	515	0	530	39	7	
2	0	0	0	0	511	514	0	516	39	7	
3	0	0	0	0	514	512	0	504	38	7	
4	0	0	0	0	510	514	0	502	38	7	
5	0	0	0	0	514	511	0	495	39	7	
6	0	0	0	0	508	508	0	496	38	7	
7	0	0	0	0	505	508	0	489	39	8	
8	0	0	0	0	500	508	0	482	39	8	
9	0	0	0	0	505	508	0	486	38	8	
10	0	0	0	0	508	507	0	486	39	7	
11	0	0	0	0	509	505	0	488	38	7	
12	0	0	0	0	503	504	0	490	39	7	
13	0	0	0	0	519	507	0	490	39	7	
14	0	0	0	0	505	509	0	489	38	7	
15	0	0	0	0	509	511	0	487	39	7	
0	0	0	0	0	507	511	0	486	39	8	
1	0	0	0	0	501	512	0	484	39	8	
2	0	0	0	0	507	514	0	483	39	7	
3	0	0	0	0	511	513	0	487	38	7	
4	0	0	0	0	510	513	0	488	39	7	
5	0	0	0	0	505	512	0	492	39	7	
6	0	0	0	0	505	512	0	490	39	7	
7	0	0	0	0	513	514	0	483	39	7	
8	0	0	0	0	510	516	0	484	38	8	
9	0	0	0	0	503	515	0	483	39	8	
10	0	0	0	0	499	514	0	486	38	7	
11	0	0	0	0	504	513	0	488	38	7	
12	0	0	0	0	509	513	0	491	39	7	
13	0	0	0	0	507	515	0	492	38	7	
14	0	0	0	0	504	518	0	497	39	7	
15	0	0	0	0	509	519	0	521	39	7	
0	0	0	0	0	515	520	0	531	39	8	
1	0	0	0	0	508	523	0	547	38	8	
2	0	0	0	0	507	524	0	556	38	8	
3	0	0	0	0	513	522	0	558	38	7	
4	0	0	0	0	503	519	0	572	39	7	
5	0	0	0	0	518	518	0	569	39	7	
6	0	0	0	0	509	518	0	575	38	7	
7	0	0	0	0	503	520	0	572	39	7	
8	0	0	0	0	506	522	0	563	39	8	
9	0	0	0	0	498	521	0	571	39	8	
10	0	0	0	0	509	520	0	579	38	8	
11	0	0	0	0	511	519	0	560	38	7	
12	0	0	0	0	505	518	0	547	38	7	
13	0	0	0	0	505	516	0	533	39	7	
14	0	0	0	0	510	517	0	521	39	7	
15	0	0	0	0	504	520	0	511	39	7	
0	0	0	0	0	510	519	0	502	39	7	
1	0	0	0	0	509	517	0	499	38	8	
2	0	0	0	0	511	516	0	494	39	8	
3	0	0	0	0	510	515	0	495	38	8	
4	0	0	0	0	502	515	0	492	39	7	
5	0	0	0	0	511	513	0	491	39	7	
6	0	0	0	0	511	515	0	490	38	7	
7	0	0	0	0	504	519	0	486	39	7	
8	0	0	0	0	515	522	0	483	39	7	
9	0	0	0	0	501	523	0	482	38	8	
10	0	0	0	0	506	523	0	482	39	8	
11	0	0	0	0	507	523	0	485	38	8	
12	0	0	0	0	511	520	0	488	39	7	
13	0	0	0	0	504	517	0	492	39	7	
14	0	0	0	0	510	517	0	490	39	7	
15	0	0	0	0	507	517	0	488	39	7	
0	0	0	0	0	500	521	0	489	38	7	
1	0	0	0	0	505	520	0	489	39	8	
2	0	0	0	0	512	512	0	493	39	8	
3	0	0	0	0	508	507	0	492	38	8	
4	0	0	0	0	507	506	0	491	39	8	
5	0	0	0	0	511	506	0	492	38	7	
6	0	0	0	0	511	507	0	490	39	7	
7	0	0	0	0	504	508	0	489	39	7	
8	0	0	0	0	501	506	0	486	38	7	
9	0	0	0	0	512	505	0	483	39	7	
10	0	0	0	0	504	508	0	489	38	8	
11	0	0	0	0	509	508	0	487	38	8	
12	0	0	0	0	510	507	0	489	39	8	
13	0	0	0	0	505	508	0	489	39	7	
14	0	0	0	0	512	505	0	484	39	7	
15	0	0	0	0	506	504	0	482	39	7	
0	0	0	0	0	501	505	0	478	39	7	
1	0	0	0	0	502	505	0	480	39	7	
2	0	0	0	0	507	502	0	483	38	8	
3	0	0	0	0	518	501	0	481	38	8	
4	0	0	0	0	508	499	0	485	38	8	
5	0	0	0	0	499	498	0	487	39	7	
6	0	0	0	0	505	499	0	496	39	7	
7	0	0	0	0	507	498	0	517	39	7	
8	0	0	0	0	511	497	0	528	39	7	
9	0	0	0	0	512	498	0	540	38	7	
10	0	0	0	0	510	497	0	555	39	7	
11	0	0	0	0	511	501	0	554	38	8	
12	0	0	0	0	509	502	0	566	38	8	
13	0	0	0	0	505	501	0	567	39	8	
14	0	0	0	0	510	500	0	566	38	7	
15	0	0	0	0	504	505	0	568	39	7	
0	0	0	0	0	507	510	0	555	39	7	
1	0	0	0	0	500	507	0	560	39	7	
2	0	0	0	0	505	506	0	557	39	7	
3	0	0	0	0	507	506	0	556	38	8	
4	0	0	0	0	517	504	0	564	39	8	
5	0	0	0	0	506	501	0	559	39	8	
6	0	0	0	0	504	500	0	566	39	7	
7	0	0	0	0	512	500	0	558	39	7	
8	0	0	0	0	515	501	0	553	39	7	
9	0	0	0	0	502	502	0	560	39	7	
10	0	0	0	0	512	502	0	555	38	7	
11	0	0	0	0	504	502	0	548	38	8	
12	0	0	0	0	511	504	0	531	38	8	
13	0	0	0	0	519	506	0	519	39	8	
14	0	0	0	0	508	506	0	505	39	7	
15	0	0	0	0	509	505	0	498	39	7	
0	0	0	0	0	503	506	0	488	39	7	
1	0	0	0	0	505	508	0	479	39	7	
2	0	0	0	0	501	510	0	479	38	7	
3	0	0	0	0	505	512	0	479	38	8	
4	0	0	0	0	503	510	0	481	39	8	
5	0	0	0	0	506	506	0	483	38	8	
6	0	0	0	0	517	504	0	482	39	8	
7	0	0	0	0	507	505	3	480	39	7	
8	0	0	0	0	512	504	0	477	39	7	
9	0	0	0	0	507	505	0	476	38	7	
10	0	0	0	0	504	507	0	476	38	7	
11	0	0	0	0	512	503	0	477	38	7	
12	0	0	0	0	508	502	0	482	38	8	
13	0	0	0	0	505	501	0	483	39	7	
14	0	0	0	0	501	503	0	484	39	8	
15	0	0	0	0	513	504	0	482	39	7	
0	0	0	0	0	510	504	0	473	39	7	
1	0	0	0	0	506	501	0	477	38	7	
2	0	0	0	0	504	499	0	478	39	7	
3	0	0	0	0	508	501	0	480	38	7	
4	0	0	0	0	502	497	0	484	38	8	
5	0	0	0	0	507	493	0	486	39	8	
6	0	0	0	0	508	496	0	490	38	8	
7	0	0	0	0	510	498	0	494	39	7	
8	0	0	0	0	503	502	0	519	39	7	
9	0	0	0	0	506	504	0	528	39	7	
10	0	0	0	0	509	508	0	548	38	7	
11	0	0	0	0	505	508	0	560	38	7	
12	0	0	0	0	509	505	0	564	39	8	
13	0	0	0	0	501	504	0	579	39	8	
14	0	0	0	0	513	508	0	573	39	8	
15	0	0	0	0	506	512	0	577	39	8	
0	0	0	0	0	506	517	0	575	39	7	
1	0	0	0	0	504	523	0	571	39	7	
2	0	0	0	0	504	533	0	580	39	7	
3	0	0	0	0	506	546	0	575	38	7	
4	0	0	0	0	508	559	0	569	39	7	
5	0	0	0	0	511	573	0	569	39	8	
6	0	0	0	0	507	584	0	574	39	8	
7	0	0	0	0	511	596	0	565	39	8	
8	0	0	0	0	509	609	0	559	38	7	
9	0	0	0	0	506	622	0	543	39	7	
10	0	0	0	0	507	635	0	529	38	7	
11	0	0	0	0	510	647	0	516	38	7	
12	0	0	0	0	505	660	0	509	39	7	
13	0	0	0	0	504	671	0	501	39	8	
14	0	0	0	0	505	685	0	496	39	8	
15	0	0	0	0	508	701	0	492	39	8	
0	0	0	0	0	504	713	0	488	39	7	
1	0	0	0	0	506	720	0	489	38	7	
2	0	0	0	0	495	724	0	486	39	7	
3	0	0	0	0	517	726	0	487	38	7	
4	0	0	0	0	510	731	0	490	38	7	
5	0	0	0	0	503	728	0	490	39	7	
6	0	0	0	0	508	720	0	494	39	8	
7	0	0	0	0	503	713	0	489	39	8	
8	0	0	0	0	514	704	0	483	39	7	
9	0	0	0	0	510	698	0	485	38	7	
10	0	0	0	0	506	688	0	485	39	7	
11	0	0	0	0	511	676	0	487	38	7	
12	0	0	0	0	502	658	0	491	39	7	
13	0	0	0	0	513	641	0	490	39	7	
14	0	0	0	0	504	626	0	491	38	8	
15	0	0	0	0	503	608	0	487	39	7	
0	0	0	0	0	502	590	0	486	39	8	
1	0	0	0	0	515	572	0	486	39	7	
2	0	0	0	0	512	556	0	486	38	7	
3	0	0	0	0	506	535	0	491	38	7	
4	0	0	0	0	515	513	0	502	39	7	
5	0	0	0	0	502	492	0	530	39	7	
6	0	0	0	0	505	473	0	538	39	8	
7	0	0	0	0	511	459	0	555	39	8	
8	0	0	0	0	513	443	0	566	39	8	
9	0	0	0	0	515	425	0	574	39	7	
10	0	0	0	0	503	411	0	581	39	7	
11	0	0	0	0	503	401	0	576	38	7	
12	0	0	0	0	504	394	0	579	39	7	
13	0	0	0	0	511	388	0	584	39	7	
14	0	0	0	0	501	388	0	569	39	7	
15	0	0	0	0	504	391	0	545	39	8	
0	0	0	0	0	498	395	0	524	39	8	
1	0	0	0	0	516	398	0	510	39	7	
2	0	0	0	0	505	399	0	518	38	7	
3	0	0	0	0	505	400	0	539	38	7	
4	0	0	0	0	510	403	0	549	38	7	
5	0	0	0	0	511	407	0	564	38	7	
6	0	0	0	0	508	412	0	564	39	7	
7	0	0	0	0	509	416	0	564	39	8	
8	0	0	0	0	513	419	0	571	39	8	
9	0	0	0	0	499	421	0	565	38	8	
10	0	0	0	0	506	422	0	559	38	7	
11	0	0	0	0	511	423	0	543	38	7	
12	0	0	0	0	508	430	0	531	39	7	
13	0	0	0	0	511	434	0	515	39	7	
14	0	0	0	0	505	439	0	506	39	7	
15	0	0	0	0	508	442	0	496	39	8	
0	0	0	0	0	513	443	0	488	39	8	
1	0	0	0	0	511	444	0	486	38	8	
2	0	0	0	0	505	449	0	483	39	7	
3	0	0	0	0	507	455	0	482	38	7	
4	0	0	0	0	505	461	0	482	39	7	
5	0	0	0	0	512	461	0	481	39	7	
6	0	0	0	0	501	464	0	484	38	7	
7	0	0	0	0	503	464	0	481	39	7	
8	0	0	0	0	507	465	0	479	38	8	
9	0	0	0	0	502	469	0	481	39	8	
10	0	0	0	0	513	472	0	478	39	7	
11	0	0	0	0	506	473	0	481	38	7	
12	0	0	0	0	504	473	0	482	39	7	
13	0	0	0	0	509	475	0	483	39	7	
14	0	0	0	0	504	479	0	483	39	7	
15	0	0	0	0	510	482	0	477	39	7	
0	0	0	0	0	508	483	0	478	38	8	
1	0	0	0	0	508	484	0	476	39	8	
2	0	0	0	0	505	483	0	478	39	8	
3	0	0	0	0	506	483	0	478	38	7	
4	0	0	0	0	507	486	0	476	39	7	
5	0	0	0	0	505	487	0	479	38	7	
6	0	0	0	0	508	487	0	485	39	7	
