# OpenSignals Text File Format. Version 1
# {"98:D3:51:FD:71:01": {"position": 0, "device": "bitalino_rev", "device name": "98:D3:51:FD:71:01", "device connection": "BTH98:D3:51:FD:71:01", "sampling rate": 1000, "resolution": [4, 1, 1, 1, 1, 10, 10, 10, 10, 6, 6], "firmware version": 1282, "comments": "", "keywords": "", "mode": 0, "sync interval": 2, "date": "2024-4-19", "time": "11:44:51.740", "channels": [1, 2, 3, 4, 5, 6], "sensor": ["RAW", "RAW", "RAW", "RAW", "RAW", "RAW"], "label": ["A1", "A2", "A3", "A4", "A5", "A6"], "column": ["nSeq", "I1", "I2", "O1", "O2", "A1", "A2", "A3", "A4", "A5", "A6"], "special": [{}, {}, {}, {}, {}, {}], "digital IO": [0, 0, 1, 1]}}
# EndOfHeader
0	0	0	0	0	501	641	0	494	38	4	
1	0	0	0	0	508	615	0	492	39	5	
2	0	0	0	0	513	583	0	495	38	5	
3	0	0	0	0	506	549	0	498	38	5	
4	0	0	0	0	514	515	0	497	38	5	
5	0	0	0	0	502	488	0	514	38	5	
6	0	0	0	0	507	460	0	536	38	5	
7	0	0	0	0	508	429	0	557	39	5	
8	0	0	0	0	512	403	0	574	39	4	
9	0	0	0	0	510	382	0	586	38	4	
10	0	0	0	0	501	364	0	592	38	5	
11	0	0	0	0	504	352	0	597	38	5	
12	0	0	0	0	505	346	0	600	38	5	
13	0	0	0	0	505	345	0	599	39	5	
14	0	0	0	0	511	347	0	599	38	5	
15	0	0	0	0	512	350	0	598	39	5	
0	0	0	0	0	509	354	0	597	39	4	
1	0	0	0	0	505	358	0	596	38	4	
2	0	0	0	0	502	362	0	596	39	5	
3	0	0	0	0	506	367	0	596	39	5	
4	0	0	0	0	510	371	0	595	38	5	
5	0	0	0	0	510	379	0	595	38	5	
6	0	0	0	0	504	388	0	595	39	5	
7	0	0	0	0	513	398	0	580	39	5	
8	0	0	0	0	504	405	0	580	39	4	
9	0	0	0	0	508	415	0	568	38	4	
10	0	0	0	0	511	431	0	554	39	5	
11	0	0	0	0	510	446	0	544	38	5	
12	0	0	0	0	511	455	0	553	38	5	
13	0	0	0	0	507	459	0	549	39	5	
14	0	0	0	0	503	464	0	543	38	5	
15	0	0	0	0	502	468	0	529	39	5	
0	0	0	0	0	505	472	0	514	39	4	
1	0	0	0	0	505	473	0	499	39	4	
2	0	0	0	0	511	476	0	486	39	4	
3	0	0	0	0	505	479	0	481	39	5	
4	0	0	0	0	506	481	0	478	38	5	
5	0	0	0	0	505	479	0	474	39	5	
6	0	0	0	0	515	476	0	472	39	5	
7	0	0	0	0	508	474	0	469	39	5	
8	0	0	0	0	506	470	0	470	39	4	
9	0	0	0	0	510	466	0	469	39	4	
10	0	0	0	0	512	465	0	470	39	4	
11	0	0	0	0	504	467	0	472	38	4	
12	0	0	0	0	513	467	0	472	38	5	
13	0	0	0	0	512	467	0	472	39	5	
14	0	0	0	0	507	468	0	473	39	5	
15	0	0	0	0	504	471	0	474	39	5	
0	0	0	0	0	505	472	0	478	39	5	
1	0	0	0	0	510	473	0	492	39	4	
2	0	0	0	0	515	476	0	479	38	4	
3	0	0	0	0	508	479	0	478	39	4	
4	0	0	0	0	510	479	0	479	38	5	
5	0	0	0	0	505	480	0	480	38	5	
6	0	0	0	0	510	482	0	480	38	5	
7	0	0	0	0	511	486	0	481	39	5	
8	0	0	0	0	508	488	0	482	39	5	
9	0	0	0	0	509	488	0	487	38	4	
10	0	0	0	0	498	485	0	486	39	4	
11	0	0	0	0	506	482	0	486	38	4	
12	0	0	0	0	503	482	0	488	38	5	
13	0	0	0	0	511	484	0	499	39	5	
14	0	0	0	0	507	487	0	526	39	5	
15	0	0	0	0	506	487	0	536	39	5	
0	0	0	0	0	504	489	0	555	39	5	
1	0	0	0	0	508	489	0	564	38	5	
2	0	0	0	0	508	491	0	567	38	4	
3	0	0	0	0	504	493	0	581	39	4	
4	0	0	0	0	516	492	0	575	38	5	
5	0	0	0	0	510	490	0	578	38	5	
6	0	0	0	0	508	487	0	577	39	5	
7	0	0	0	0	508	486	0	570	39	5	
8	0	0	0	0	508	487	0	576	39	5	
9	0	0	0	0	500	490	0	567	39	5	
10	0	0	0	0	503	492	0	572	38	4	
11	0	0	0	0	504	493	0	569	38	4	
12	0	0	0	0	507	492	0	565	38	5	
13	0	0	0	0	504	489	0	569	39	5	
14	0	0	0	0	510	491	0	559	39	5	
15	0	0	0	0	511	492	0	552	39	5	
0	0	0	0	0	509	493	0	535	39	5	
1	0	0	0	0	507	497	0	521	39	5	
2	0	0	0	0	509	499	0	510	38	4	
3	0	0	0	0	506	499	0	503	38	4	
4	0	0	0	0	508	497	0	498	38	5	
5	0	0	0	0	510	496	0	493	38	5	
6	0	0	0	0	504	494	0	490	39	5	
7	0	0	0	0	506	495	0	487	39	5	
8	0	0	0	0	510	496	0	489	39	5	
9	0	0	0	0	509	493	0	488	39	5	
10	0	0	0	0	512	489	0	488	39	5	
11	0	0	0	0	505	486	0	489	39	4	
12	0	0	0	0	503	484	0	493	38	4	
13	0	0	0	0	510	484	0	491	39	5	
14	0	0	0	0	503	484	0	487	38	5	
15	0	0	0	0	504	486	0	482	38	5	
0	0	0	0	0	504	483	0	480	39	5	
1	0	0	0	0	502	479	0	484	38	5	
2	0	0	0	0	517	479	0	486	38	5	
3	0	0	0	0	511	480	0	488	39	4	
4	0	0	0	0	507	486	0	489	38	4	
5	0	0	0	0	509	495	0	491	38	5	
6	0	0	0	0	509	503	0	489	39	5	
7	0	0	0	0	507	510	0	485	39	5	
8	0	0	0	0	508	517	0	485	39	5	
9	0	0	0	0	506	519	0	487	39	5	
10	0	0	0	0	510	520	0	488	39	5	
11	0	0	0	0	505	520	0	499	39	4	
12	0	0	0	0	505	519	0	527	38	4	
13	0	0	0	0	512	521	0	536	39	5	
14	0	0	0	0	510	524	0	549	38	5	
15	0	0	0	0	511	526	0	560	39	5	
0	0	0	0	0	500	524	0	557	39	5	
1	0	0	0	0	509	522	0	570	39	5	
2	0	0	0	0	512	520	0	568	39	5	
3	0	0	0	0	509	519	0	569	39	5	
4	0	0	0	0	508	515	0	574	38	4	
5	0	0	0	0	507	512	0	567	39	5	
6	0	0	0	0	496	508	0	575	38	5	
7	0	0	0	0	508	507	0	577	39	5	
8	0	0	0	0	506	507	0	556	39	5	
9	0	0	0	0	508	503	0	543	39	5	
10	0	0	0	0	509	498	0	528	39	5	
11	0	0	0	0	502	499	0	517	39	5	
12	0	0	0	0	511	499	0	507	38	5	
13	0	0	0	0	511	499	0	498	39	4	
14	0	0	0	0	507	501	0	494	39	5	
15	0	0	0	0	514	504	0	494	39	5	
0	0	0	0	0	510	510	0	492	39	5	
1	0	0	0	0	509	516	0	491	38	5	
2	0	0	0	0	502	520	0	489	39	5	
3	0	0	0	0	505	524	0	489	38	5	
4	0	0	0	0	505	526	0	491	38	5	
5	0	0	0	0	507	525	0	489	39	4	
6	0	0	0	0	514	525	0	484	39	5	
7	0	0	0	0	504	527	0	481	39	5	
8	0	0	0	0	503	529	0	479	39	5	
9	0	0	0	0	504	531	0	483	38	5	
10	0	0	0	0	502	533	0	483	38	5	
11	0	0	0	0	513	534	0	486	38	5	
12	0	0	0	0	505	534	0	488	38	5	
13	0	0	0	0	505	534	0	490	38	5	
14	0	0	0	0	509	536	0	487	39	5	
15	0	0	0	0	508	536	0	484	39	5	
0	0	0	0	0	505	536	0	483	39	5	
1	0	0	0	0	504	537	0	486	38	5	
2	0	0	0	0	505	536	0	486	39	5	
3	0	0	0	0	512	534	0	487	38	5	
4	0	0	0	0	511	533	0	492	38	5	
5	0	0	0	0	504	529	0	514	39	5	
6	0	0	0	0	509	527	0	525	39	5	
7	0	0	0	0	509	524	0	534	39	5	
8	0	0	0	0	505	519	0	552	39	5	
9	0	0	0	0	510	516	0	552	39	5	
10	0	0	0	0	507	515	0	562	38	5	
11	0	0	0	0	509	514	0	561	39	5	
12	0	0	0	0	505	511	0	558	38	5	
13	0	0	0	0	505	510	0	564	39	5	
14	0	0	0	0	516	512	0	552	39	5	
15	0	0	0	0	506	515	0	556	39	5	
0	0	0	0	0	511	518	0	553	39	5	
1	0	0	0	0	504	523	0	547	39	5	
2	0	0	0	0	507	532	0	537	38	5	
3	0	0	0	0	505	536	0	523	38	5	
4	0	0	0	0	513	537	0	510	38	5	
5	0	0	0	0	508	541	0	495	38	5	
6	0	0	0	0	504	545	0	486	39	4	
7	0	0	0	0	511	547	0	476	39	5	
8	0	0	0	0	507	548	0	472	39	5	
9	0	0	0	0	504	547	0	471	39	5	
10	0	0	0	0	512	547	0	472	39	5	
11	0	0	0	0	504	547	0	475	39	5	
12	0	0	0	0	515	548	0	477	38	5	
13	0	0	0	0	503	550	0	476	39	5	
14	0	0	0	0	505	553	0	475	38	5	
15	0	0	0	0	502	553	0	473	39	5	
0	0	0	0	0	508	552	0	468	39	5	
1	0	0	0	0	506	551	0	468	39	5	
2	0	0	0	0	507	550	0	471	39	5	
3	0	0	0	0	502	548	0	470	39	5	
4	0	0	0	0	511	545	0	470	38	5	
5	0	0	0	0	511	543	0	470	38	5	
6	0	0	0	0	507	539	0	467	38	5	
7	0	0	0	0	511	537	0	464	39	4	
8	0	0	0	0	508	539	0	463	39	5	
9	0	0	0	0	508	540	0	467	38	5	
10	0	0	0	0	503	540	0	471	39	5	
11	0	0	0	0	507	543	0	470	39	5	
12	0	0	0	0	510	549	0	471	38	5	
13	0	0	0	0	507	555	0	471	39	5	
14	0	0	0	0	506	557	0	469	39	5	
15	0	0	0	0	504	561	0	467	39	5	
0	0	0	0	0	505	562	0	463	39	4	
1	0	0	0	0	506	561	0	464	39	5	
2	0	0	0	0	511	563	0	468	38	5	
3	0	0	0	0	508	565	0	471	39	5	
4	0	0	0	0	509	567	0	473	38	5	
5	0	0	0	0	510	569	0	475	39	5	
6	0	0	0	0	502	569	0	473	39	5	
7	0	0	0	0	507	565	0	467	39	5	
8	0	0	0	0	517	563	0	464	39	4	
9	0	0	0	0	506	564	0	465	38	5	
10	0	0	0	0	506	562	0	473	38	5	
11	0	0	0	0	503	558	0	502	38	5	
12	0	0	0	0	508	557	0	516	38	5	
13	0	0	0	0	501	558	0	529	38	5	
14	0	0	0	0	502	560	0	541	39	5	
15	0	0	0	0	511	566	0	540	39	5	
0	0	0	0	0	511	568	0	552	39	4	
1	0	0	0	0	508	567	0	548	39	4	
2	0	0	0	0	509	566	0	550	39	5	
3	0	0	0	0	511	565	0	557	39	5	
4	0	0	0	0	504	568	0	551	38	5	
5	0	0	0	0	508	572	0	558	39	5	
6	0	0	0	0	511	575	0	550	39	5	
7	0	0	0	0	508	576	0	549	39	5	
8	0	0	0	0	504	576	0	556	39	4	
9	0	0	0	0	510	578	0	551	39	4	
10	0	0	0	0	508	579	0	559	39	5	
11	0	0	0	0	506	577	0	553	39	5	
12	0	0	0	0	508	572	0	552	38	5	
13	0	0	0	0	507	568	0	556	39	5	
14	0	0	0	0	499	564	0	546	38	5	
15	0	0	0	0	507	562	0	537	39	5	
0	0	0	0	0	509	560	0	523	39	4	
1	0	0	0	0	509	556	0	508	38	4	
2	0	0	0	0	505	551	0	496	39	5	
3	0	0	0	0	504	544	0	491	38	5	
4	0	0	0	0	512	538	0	487	38	5	
5	0	0	0	0	508	538	0	486	39	5	
6	0	0	0	0	512	542	0	495	39	5	
7	0	0	0	0	511	547	0	474	39	5	
8	0	0	0	0	511	549	0	470	39	4	
9	0	0	0	0	504	553	0	472	39	4	
10	0	0	0	0	507	555	0	472	39	4	
11	0	0	0	0	509	555	0	473	39	5	
12	0	0	0	0	505	553	0	476	38	5	
13	0	0	0	0	507	553	0	477	38	5	
14	0	0	0	0	510	555	0	476	39	5	
15	0	0	0	0	509	556	0	474	39	5	
0	0	0	0	0	507	554	0	472	39	4	
1	0	0	0	0	509	548	0	475	39	4	
2	0	0	0	0	511	542	0	478	39	4	
3	0	0	0	0	507	538	0	480	39	5	
4	0	0	0	0	508	534	0	481	38	5	
5	0	0	0	0	507	531	0	483	39	5	
6	0	0	0	0	499	527	0	484	39	5	
7	0	0	0	0	503	523	0	483	39	5	
8	0	0	0	0	508	520	0	484	39	4	
9	0	0	0	0	502	516	0	487	39	4	
10	0	0	0	0	513	511	0	491	39	4	
11	0	0	0	0	509	508	0	503	39	4	
12	0	0	0	0	504	509	0	494	38	5	
13	0	0	0	0	504	511	0	497	38	5	
14	0	0	0	0	511	512	0	519	39	5	
15	0	0	0	0	510	513	0	534	39	5	
0	0	0	0	0	510	515	0	544	39	5	
1	0	0	0	0	512	514	0	564	39	4	
2	0	0	0	0	511	511	0	566	39	4	
3	0	0	0	0	505	510	0	578	39	4	
4	0	0	0	0	511	511	0	582	38	5	
5	0	0	0	0	505	510	0	582	39	5	
6	0	0	0	0	508	509	0	591	39	5	
7	0	0	0	0	503	509	0	575	39	5	
8	0	0	0	0	501	508	0	577	39	5	
9	0	0	0	0	511	508	0	577	39	4	
10	0	0	0	0	512	506	0	573	39	4	
11	0	0	0	0	502	502	0	565	39	4	
12	0	0	0	0	503	500	0	552	38	4	
13	0	0	0	0	513	498	0	540	39	5	
14	0	0	0	0	512	494	0	530	38	5	
15	0	0	0	0	510	490	0	520	39	5	
0	0	0	0	0	510	484	0	511	39	5	
1	0	0	0	0	510	477	0	508	39	5	
2	0	0	0	0	507	469	0	505	39	4	
3	0	0	0	0	503	463	0	504	38	4	
4	0	0	0	0	503	457	0	504	38	4	
5	0	0	0	0	511	451	0	505	39	5	
6	0	0	0	0	504	445	0	502	39	5	
7	0	0	0	0	509	440	0	498	39	5	
8	0	0	0	0	507	433	0	496	39	5	
9	0	0	0	0	513	428	0	498	39	5	
10	0	0	0	0	507	427	0	500	39	4	
11	0	0	0	0	507	430	0	501	38	4	
12	0	0	0	0	511	429	0	503	38	4	
13	0	0	0	0	512	426	0	504	38	5	
14	0	0	0	0	507	423	0	506	39	5	
15	0	0	0	0	505	422	0	504	39	5	
0	0	0	0	0	508	423	0	504	39	5	
1	0	0	0	0	505	428	0	505	39	5	
2	0	0	0	0	504	435	0	506	39	4	
3	0	0	0	0	513	443	0	508	39	4	
4	0	0	0	0	510	450	0	510	38	4	
5	0	0	0	0	510	456	0	509	39	5	
6	0	0	0	0	502	459	0	507	38	5	
7	0	0	0	0	504	458	0	521	39	5	
8	0	0	0	0	503	457	0	544	39	5	
9	0	0	0	0	513	455	0	556	39	5	
10	0	0	0	0	503	451	0	576	39	5	
11	0	0	0	0	501	447	0	580	39	4	
12	0	0	0	0	503	442	0	586	38	4	
13	0	0	0	0	515	438	0	593	39	4	
14	0	0	0	0	512	434	0	584	39	5	
15	0	0	0	0	514	431	0	591	39	5	
0	0	0	0	0	508	429	0	583	39	5	
1	0	0	0	0	504	429	0	583	38	5	
2	0	0	0	0	505	429	0	588	39	5	
3	0	0	0	0	507	426	0	581	38	4	
4	0	0	0	0	508	422	0	575	38	4	
5	0	0	0	0	504	420	0	582	39	5	
6	0	0	0	0	504	420	0	582	38	5	
7	0	0	0	0	509	422	0	575	39	5	
8	0	0	0	0	510	424	0	566	39	5	
9	0	0	0	0	509	427	0	552	39	5	
10	0	0	0	0	510	428	0	542	39	5	
11	0	0	0	0	511	430	0	532	39	4	
12	0	0	0	0	507	430	0	523	38	4	
13	0	0	0	0	502	432	0	519	39	4	
14	0	0	0	0	513	431	0	516	39	5	
15	0	0	0	0	507	432	0	508	39	5	
0	0	0	0	0	512	434	0	503	39	5	
1	0	0	0	0	510	433	0	504	39	5	
2	0	0	0	0	499	434	0	505	38	5	
3	0	0	0	0	512	435	0	506	38	5	
4	0	0	0	0	507	433	0	507	38	4	
5	0	0	0	0	504	430	0	505	39	4	
6	0	0	0	0	508	432	0	505	39	5	
7	0	0	0	0	511	435	0	502	38	5	
8	0	0	0	0	508	437	0	502	39	5	
9	0	0	0	0	503	436	0	505	38	5	
10	0	0	0	0	512	434	0	500	38	5	
11	0	0	0	0	508	433	0	500	39	5	
12	0	0	0	0	510	432	0	503	38	4	
13	0	0	0	0	511	427	0	502	39	4	
14	0	0	0	0	510	423	0	499	39	5	
15	0	0	0	0	500	422	0	495	39	5	
0	0	0	0	0	504	422	0	494	39	5	
1	0	0	0	0	509	423	0	497	39	5	
2	0	0	0	0	509	429	0	501	38	5	
3	0	0	0	0	505	435	0	507	38	5	
4	0	0	0	0	508	440	0	528	38	5	
5	0	0	0	0	507	443	0	548	39	4	
6	0	0	0	0	508	447	0	553	39	4	
7	0	0	0	0	508	450	0	571	39	5	
8	0	0	0	0	514	451	0	574	39	5	
9	0	0	0	0	508	452	0	580	39	5	
10	0	0	0	0	511	456	0	588	39	5	
11	0	0	0	0	511	460	0	584	39	5	
12	0	0	0	0	505	461	0	593	38	5	
13	0	0	0	0	503	461	0	590	39	4	
14	0	0	0	0	510	459	0	591	39	4	
15	0	0	0	0	507	455	0	592	39	5	
0	0	0	0	0	519	451	0	583	39	5	
1	0	0	0	0	507	450	0	575	39	5	
2	0	0	0	0	507	448	0	559	39	5	
3	0	0	0	0	512	449	0	557	39	5	
4	0	0	0	0	501	453	0	529	38	5	
5	0	0	0	0	500	455	0	521	39	5	
6	0	0	0	0	511	451	0	513	39	4	
7	0	0	0	0	511	444	0	504	39	5	
8	0	0	0	0	513	442	0	497	39	5	
9	0	0	0	0	507	446	0	496	39	5	
10	0	0	0	0	500	453	0	498	39	5	
11	0	0	0	0	507	459	0	498	39	5	
12	0	0	0	0	506	462	0	501	38	5	
13	0	0	0	0	505	459	0	500	38	5	
14	0	0	0	0	511	455	0	498	39	5	
15	0	0	0	0	509	455	0	497	39	5	
0	0	0	0	0	511	459	0	497	39	5	
1	0	0	0	0	500	463	0	498	38	5	
2	0	0	0	0	501	467	0	498	39	5	
3	0	0	0	0	510	470	0	499	39	5	
4	0	0	0	0	510	474	0	501	38	5	
5	0	0	0	0	508	479	0	501	39	5	
6	0	0	0	0	509	482	0	501	39	5	
7	0	0	0	0	514	483	0	511	39	5	
8	0	0	0	0	505	483	0	495	39	5	
9	0	0	0	0	511	481	0	498	39	5	
10	0	0	0	0	512	476	0	502	39	5	
11	0	0	0	0	506	474	0	505	38	5	
12	0	0	0	0	507	473	0	508	38	5	
13	0	0	0	0	499	472	0	518	39	5	
14	0	0	0	0	502	472	0	544	39	5	
15	0	0	0	0	515	472	0	552	39	5	
0	0	0	0	0	509	473	0	567	39	5	
1	0	0	0	0	508	473	0	578	39	5	
2	0	0	0	0	505	473	0	582	39	5	
3	0	0	0	0	508	474	0	593	38	5	
4	0	0	0	0	515	477	0	587	38	5	
5	0	0	0	0	500	480	0	590	38	5	
6	0	0	0	0	501	483	0	584	38	5	
7	0	0	0	0	505	485	0	575	39	4	
8	0	0	0	0	512	485	0	581	39	4	
9	0	0	0	0	507	485	0	571	38	5	
10	0	0	0	0	504	484	0	575	38	5	
11	0	0	0	0	504	483	0	577	39	5	
12	0	0	0	0	507	481	0	573	38	5	
13	0	0	0	0	504	478	0	577	39	5	
14	0	0	0	0	506	475	0	565	39	5	
15	0	0	0	0	508	474	0	556	39	4	
0	0	0	0	0	504	473	0	542	39	4	
1	0	0	0	0	507	474	0	531	39	5	
2	0	0	0	0	509	475	0	520	39	5	
3	0	0	0	0	509	470	0	510	38	5	
4	0	0	0	0	505	466	0	503	38	5	
5	0	0	0	0	512	466	0	498	39	5	
6	0	0	0	0	512	472	0	495	39	5	
7	0	0	0	0	505	483	0	491	39	5	
8	0	0	0	0	510	491	0	490	39	4	
9	0	0	0	0	508	492	0	489	39	5	
10	0	0	0	0	508	489	0	489	39	5	
11	0	0	0	0	508	488	0	491	39	5	
12	0	0	0	0	504	489	0	496	38	5	
13	0	0	0	0	507	492	0	506	38	5	
14	0	0	0	0	509	494	0	496	38	5	
15	0	0	0	0	504	495	0	494	39	5	
0	0	0	0	0	509	495	0	494	39	4	
1	0	0	0	0	506	492	0	497	39	4	
2	0	0	0	0	511	489	0	500	39	5	
3	0	0	0	0	507	487	0	503	39	5	
4	0	0	0	0	512	487	0	503	38	5	
5	0	0	0	0	512	487	0	503	38	5	
6	0	0	0	0	504	486	0	502	38	5	
7	0	0	0	0	504	484	0	498	39	5	
8	0	0	0	0	508	484	0	496	39	4	
9	0	0	0	0	506	486	0	497	39	4	
10	0	0	0	0	511	490	0	499	39	4	
11	0	0	0	0	507	496	0	509	38	5	
12	0	0	0	0	506	500	0	536	38	5	
13	0	0	0	0	513	500	0	550	39	5	
14	0	0	0	0	503	498	0	564	39	5	
15	0	0	0	0	515	495	0	576	39	5	
0	0	0	0	0	507	492	0	575	39	4	
1	0	0	0	0	504	494	0	592	39	4	
2	0	0	0	0	504	496	0	592	39	4	
3	0	0	0	0	505	497	0	594	38	5	
4	0	0	0	0	507	498	0	600	38	5	
5	0	0	0	0	510	496	0	593	39	5	
6	0	0	0	0	510	495	0	600	39	5	
7	0	0	0	0	507	494	0	591	39	5	
8	0	0	0	0	507	492	0	583	39	4	
9	0	0	0	0	506	492	0	569	39	4	
10	0	0	0	0	506	492	0	555	39	4	
11	0	0	0	0	509	490	0	542	38	4	
12	0	0	0	0	511	491	0	533	38	5	
13	0	0	0	0	505	492	0	526	39	5	
14	0	0	0	0	506	489	0	523	39	5	
15	0	0	0	0	508	486	0	518	39	5	
0	0	0	0	0	506	483	0	515	39	4	
1	0	0	0	0	511	483	0	514	39	4	
2	0	0	0	0	504	482	0	512	38	4	
3	0	0	0	0	498	485	0	511	39	4	
4	0	0	0	0	499	486	0	510	38	5	
5	0	0	0	0	512	489	0	509	39	5	
6	0	0	0	0	513	491	0	505	39	5	
7	0	0	0	0	513	490	0	504	38	5	
8	0	0	0	0	509	489	0	501	39	5	
9	0	0	0	0	509	487	0	501	38	4	
10	0	0	0	0	508	488	0	504	38	4	
11	0	0	0	0	505	490	0	506	38	4	
12	0	0	0	0	505	494	0	507	38	5	
13	0	0	0	0	502	496	0	508	39	5	
14	0	0	0	0	501	497	0	506	39	5	
15	0	0	0	0	512	499	0	500	39	5	
0	0	0	0	0	505	499	0	499	39	5	
1	0	0	0	0	517	500	0	499	39	4	
2	0	0	0	0	508	500	0	499	39	4	
3	0	0	0	0	510	499	0	502	39	4	
4	0	0	0	0	500	497	0	505	38	4	
5	0	0	0	0	514	495	0	505	39	5	
6	0	0	0	0	505	494	0	499	39	5	
7	0	0	0	0	506	491	0	494	39	5	
8	0	0	0	0	507	488	0	492	39	5	
9	0	0	0	0	506	487	0	493	39	4	
10	0	0	0	0	510	487	0	493	39	4	
11	0	0	0	0	510	485	0	494	39	4	
12	0	0	0	0	510	483	0	494	38	4	
13	0	0	0	0	504	486	0	496	39	5	
14	0	0	0	0	505	491	0	494	39	5	
15	0	0	0	0	505	495	0	490	39	5	
0	0	0	0	0	508	499	0	490	39	5	
1	0	0	0	0	508	502	0	495	38	5	
2	0	0	0	0	505	504	0	500	39	4	
3	0	0	0	0	512	504	0	501	38	4	
4	0	0	0	0	510	508	0	503	38	4	
5	0	0	0	0	512	513	0	502	39	5	
6	0	0	0	0	507	516	0	500	39	5	
7	0	0	0	0	496	516	0	498	39	5	
8	0	0	0	0	503	514	0	498	39	5	
9	0	0	0	0	516	510	0	499	38	5	
10	0	0	0	0	505	508	0	500	39	4	
11	0	0	0	0	504	506	0	502	39	4	
12	0	0	0	0	510	503	0	512	38	4	
13	0	0	0	0	506	503	0	537	38	4	
14	0	0	0	0	507	501	0	546	39	5	
15	0	0	0	0	504	499	0	558	39	5	
0	0	0	0	0	509	499	0	574	39	5	
1	0	0	0	0	513	499	0	577	39	5	
2	0	0	0	0	509	499	0	591	39	4	
3	0	0	0	0	507	500	0	589	39	4	
4	0	0	0	0	505	500	0	591	38	4	
5	0	0	0	0	506	501	0	595	39	4	
6	0	0	0	0	512	500	0	584	38	5	
7	0	0	0	0	505	500	0	590	39	5	
8	0	0	0	0	506	505	0	584	39	5	
9	0	0	0	0	501	507	0	584	38	5	
10	0	0	0	0	506	508	0	590	39	5	
11	0	0	0	0	512	507	0	584	39	4	
12	0	0	0	0	516	504	0	591	38	4	
13	0	0	0	0	509	504	0	586	39	4	
14	0	0	0	0	510	502	0	585	39	5	
15	0	0	0	0	511	500	0	587	39	5	
0	0	0	0	0	506	500	0	579	39	5	
1	0	0	0	0	502	502	0	587	39	5	
2	0	0	0	0	511	504	0	583	39	5	
3	0	0	0	0	505	505	0	579	39	4	
4	0	0	0	0	511	505	0	577	38	4	
5	0	0	0	0	504	506	0	584	39	4	
6	0	0	0	0	505	506	0	575	39	5	
7	0	0	0	0	506	504	0	568	39	5	
8	0	0	0	0	508	502	0	554	39	5	
9	0	0	0	0	507	500	0	539	39	5	
10	0	0	0	0	509	500	0	527	39	5	
11	0	0	0	0	505	500	0	517	39	4	
12	0	0	0	0	507	499	0	512	38	4	
13	0	0	0	0	511	497	0	505	39	4	
14	0	0	0	0	511	495	0	499	39	4	
15	0	0	0	0	509	493	0	494	39	5	
0	0	0	0	0	506	491	0	491	39	5	
1	0	0	0	0	510	488	0	489	39	5	
2	0	0	0	0	505	488	0	489	39	5	
3	0	0	0	0	512	491	0	491	39	5	
4	0	0	0	0	513	493	0	491	38	4	
5	0	0	0	0	504	495	0	493	39	4	
6	0	0	0	0	497	499	0	489	39	4	
7	0	0	0	0	503	501	0	485	39	5	
8	0	0	0	0	510	502	0	484	39	5	
9	0	0	0	0	509	502	0	486	39	5	
10	0	0	0	0	508	502	0	488	38	5	
11	0	0	0	0	508	505	0	490	38	5	
12	0	0	0	0	504	505	0	491	38	4	
13	0	0	0	0	511	503	0	491	38	4	
14	0	0	0	0	514	502	0	489	38	4	
15	0	0	0	0	506	502	0	487	39	5	
0	0	0	0	0	509	506	0	487	39	5	
1	0	0	0	0	505	511	0	490	38	5	
2	0	0	0	0	503	513	0	487	39	5	
3	0	0	0	0	508	510	0	496	39	5	
4	0	0	0	0	513	508	0	523	38	5	
5	0	0	0	0	510	509	0	535	39	4	
6	0	0	0	0	503	515	0	547	39	4	
7	0	0	0	0	505	522	0	558	39	5	
8	0	0	0	0	507	523	0	556	39	5	
9	0	0	0	0	502	519	0	571	39	5	
10	0	0	0	0	504	512	0	569	39	5	
11	0	0	0	0	512	507	0	572	38	5	
12	0	0	0	0	509	503	0	579	38	5	
13	0	0	0	0	507	503	0	574	39	4	
14	0	0	0	0	503	505	0	580	39	4	
15	0	0	0	0	506	506	0	570	39	5	
0	0	0	0	0	511	505	0	561	39	5	
1	0	0	0	0	510	508	0	546	39	5	
2	0	0	0	0	512	508	0	532	39	5	
3	0	0	0	0	507	508	0	520	39	5	
4	0	0	0	0	504	506	0	511	38	5	
5	0	0	0	0	513	505	0	502	39	5	
6	0	0	0	0	508	508	0	497	39	4	
7	0	0	0	0	511	512	0	496	39	5	
8	0	0	0	0	509	514	0	493	39	5	
9	0	0	0	0	511	515	0	493	39	5	
10	0	0	0	0	506	518	0	492	38	5	
11	0	0	0	0	508	521	0	491	39	5	
12	0	0	0	0	510	522	0	491	38	5	
13	0	0	0	0	505	520	0	487	39	5	
14	0	0	0	0	500	519	0	483	39	4	
15	0	0	0	0	499	518	0	481	39	4	
0	0	0	0	0	513	516	0	481	39	5	
1	0	0	0	0	511	515	0	480	39	5	
2	0	0	0	0	508	515	0	483	39	5	
3	0	0	0	0	513	513	0	487	39	5	
4	0	0	0	0	507	511	0	488	38	5	
5	0	0	0	0	501	507	0	489	39	5	
6	0	0	0	0	504	505	0	489	39	5	
7	0	0	0	0	512	505	0	486	39	5	
8	0	0	0	0	504	505	0	483	39	5	
9	0	0	0	0	509	502	0	483	38	5	
10	0	0	0	0	515	500	0	485	39	5	
11	0	0	0	0	511	501	0	492	39	5	
12	0	0	0	0	503	503	0	487	38	5	
13	0	0	0	0	506	506	0	507	39	5	
14	0	0	0	0	504	513	0	519	39	5	
15	0	0	0	0	502	518	0	528	39	5	
0	0	0	0	0	499	521	0	547	39	4	
1	0	0	0	0	512	525	0	548	38	5	
2	0	0	0	0	510	527	0	559	39	5	
3	0	0	0	0	505	527	0	562	38	5	
4	0	0	0	0	512	525	0	562	38	5	
5	0	0	0	0	500	524	0	572	39	5	
6	0	0	0	0	509	523	0	561	39	5	
7	0	0	0	0	509	522	0	563	38	5	
8	0	0	0	0	508	518	0	561	39	4	
9	0	0	0	0	508	515	0	556	39	5	
10	0	0	0	0	507	512	0	544	39	5	
11	0	0	0	0	504	511	0	529	38	5	
12	0	0	0	0	509	510	0	513	38	5	
13	0	0	0	0	508	510	0	501	38	5	
14	0	0	0	0	501	509	0	495	39	5	
15	0	0	0	0	512	509	0	493	38	5	
0	0	0	0	0	508	510	0	516	39	4	
1	0	0	0	0	504	511	0	526	38	5	
2	0	0	0	0	515	511	0	531	38	5	
3	0	0	0	0	513	510	0	539	38	5	
4	0	0	0	0	509	511	0	556	38	5	
5	0	0	0	0	506	510	0	554	39	5	
6	0	0	0	0	509	507	0	550	38	5	
7	0	0	0	0	506	505	0	536	39	5	
8	0	0	0	0	505	502	0	523	39	4	
9	0	0	0	0	506	497	0	509	39	4	
10	0	0	0	0	510	493	0	499	38	5	
11	0	0	0	0	504	489	0	491	38	5	
12	0	0	0	0	512	487	0	484	38	5	
13	0	0	0	0	505	487	0	481	39	5	
14	0	0	0	0	509	492	0	478	38	5	
15	0	0	0	0	505	502	0	473	39	5	
0	0	0	0	0	507	512	0	470	39	4	
1	0	0	0	0	504	519	0	473	39	4	
2	0	0	0	0	502	520	0	473	39	5	
3	0	0	0	0	503	522	0	476	39	5	
4	0	0	0	0	507	525	0	478	38	5	
5	0	0	0	0	510	525	0	477	39	5	
6	0	0	0	0	514	525	0	476	38	5	
7	0	0	0	0	512	524	0	475	39	5	
8	0	0	0	0	509	525	0	473	39	4	
9	0	0	0	0	509	528	0	474	38	4	
10	0	0	0	0	508	531	0	479	38	4	
11	0	0	0	0	511	530	0	481	39	5	
12	0	0	0	0	507	526	0	482	38	5	
13	0	0	0	0	508	524	0	484	39	5	
14	0	0	0	0	508	523	0	481	38	5	
15	0	0	0	0	506	521	0	476	39	5	
0	0	0	0	0	506	519	0	474	39	5	
1	0	0	0	0	513	519	0	476	39	4	
2	0	0	0	0	508	516	0	483	38	4	
3	0	0	0	0	506	515	0	512	39	4	
4	0	0	0	0	508	517	0	526	38	5	
5	0	0	0	0	504	518	0	542	39	5	
6	0	0	0	0	510	516	0	556	39	5	
7	0	0	0	0	508	515	0	550	39	5	
8	0	0	0	0	508	518	0	563	39	4	
9	0	0	0	0	505	523	0	562	39	4	
10	0	0	0	0	501	528	0	565	38	4	
11	0	0	0	0	515	532	0	569	38	4	
12	0	0	0	0	510	537	0	563	38	5	
13	0	0	0	0	512	539	0	569	39	5	
14	0	0	0	0	509	541	0	559	38	5	
15	0	0	0	0	504	545	0	550	39	5	
0	0	0	0	0	505	550	0	537	39	5	
1	0	0	0	0	510	551	0	523	39	4	
2	0	0	0	0	503	548	0	510	39	4	
3	0	0	0	0	507	546	0	500	39	4	
4	0	0	0	0	505	543	0	492	38	5	
5	0	0	0	0	508	541	0	488	38	5	
6	0	0	0	0	504	536	0	485	38	5	
7	0	0	0	0	510	530	0	480	39	5	
8	0	0	0	0	510	525	0	478	39	5	
9	0	0	0	0	509	520	0	480	38	4	
10	0	0	0	0	512	517	0	479	39	4	
11	0	0	0	0	507	513	0	479	39	4	
12	0	0	0	0	508	510	0	482	38	5	
13	0	0	0	0	506	508	0	482	38	5	
14	0	0	0	0	504	506	0	480	38	5	
15	0	0	0	0	504	503	0	478	39	5	
0	0	0	0	0	512	502	0	475	39	5	
1	0	0	0	0	501	498	0	477	38	4	
2	0	0	0	0	513	495	0	482	38	4	
3	0	0	0	0	510	495	0	487	38	4	
4	0	0	0	0	509	495	0	484	38	4	
5	0	0	0	0	511	495	0	485	38	5	
6	0	0	0	0	506	494	0	482	39	5	
7	0	0	0	0	512	493	0	478	39	5	
8	0	0	0	0	507	492	0	478	39	5	
9	0	0	0	0	509	492	0	480	39	5	
10	0	0	0	0	508	491	0	481	39	4	
11	0	0	0	0	511	491	0	487	39	4	
12	0	0	0	0	511	491	0	512	38	4	
13	0	0	0	0	499	492	0	532	39	5	
14	0	0	0	0	506	493	0	546	39	5	
15	0	0	0	0	508	492	0	559	39	5	
0	0	0	0	0	507	489	0	560	39	5	
1	0	0	0	0	502	486	0	572	38	5	
2	0	0	0	0	512	487	0	575	38	4	
3	0	0	0	0	505	491	0	573	38	4	
4	0	0	0	0	510	494	0	583	38	4	
5	0	0	0	0	510	495	0	575	39	4	
6	0	0	0	0	503	496	0	578	38	5	
7	0	0	0	0	515	494	0	572	39	5	
8	0	0	0	0	507	493	0	563	39	5	
9	0	0	0	0	508	496	0	552	39	5	
10	0	0	0	0	503	498	0	538	38	4	
11	0	0	0	0	507	496	0	523	39	4	
12	0	0	0	0	507	494	0	513	38	4	
13	0	0	0	0	513	492	0	505	39	4	
14	0	0	0	0	509	487	0	501	39	5	
15	0	0	0	0	507	483	0	497	39	5	
0	0	0	0	0	510	480	0	493	39	5	
1	0	0	0	0	512	478	0	492	38	5	
2	0	0	0	0	505	477	0	491	38	5	
3	0	0	0	0	513	478	0	492	38	4	
4	0	0	0	0	509	481	0	494	38	4	
5	0	0	0	0	507	487	0	494	39	4	
6	0	0	0	0	507	493	0	488	39	5	
7	0	0	0	0	507	497	0	485	39	5	
8	0	0	0	0	504	500	0	484	39	5	
9	0	0	0	0	508	505	0	486	38	5	
10	0	0	0	0	498	509	0	487	38	5	
11	0	0	0	0	502	509	0	489	38	4	
12	0	0	0	0	508	508	0	493	38	4	
13	0	0	0	0	508	505	0	494	39	4	
14	0	0	0	0	502	503	0	493	38	4	
15	0	0	0	0	514	506	0	494	39	5	
0	0	0	0	0	512	512	0	492	39	5	
1	0	0	0	0	513	515	0	495	39	5	
2	0	0	0	0	508	513	0	497	39	5	
3	0	0	0	0	500	515	0	499	38	4	
4	0	0	0	0	508	512	0	502	38	4	
5	0	0	0	0	505	508	0	520	39	4	
6	0	0	0	0	511	504	0	538	39	4	
7	0	0	0	0	504	496	0	543	39	5	
8	0	0	0	0	505	491	0	567	39	5	
9	0	0	0	0	515	490	0	575	38	5	
10	0	0	0	0	504	488	0	588	38	5	
11	0	0	0	0	509	487	0	589	38	5	
12	0	0	0	0	506	489	0	584	38	4	
13	0	0	0	0	508	493	0	593	38	4	
14	0	0	0	0	509	496	0	584	39	4	
15	0	0	0	0	508	497	0	581	39	5	
0	0	0	0	0	507	499	0	583	39	5	
1	0	0	0	0	510	499	0	575	38	5	
2	0	0	0	0	512	503	0	568	39	5	
3	0	0	0	0	501	510	0	551	39	5	
4	0	0	0	0	504	518	0	536	38	5	
5	0	0	0	0	508	529	0	524	39	4	
6	0	0	0	0	504	543	0	516	39	4	
7	0	0	0	0	505	559	0	505	39	5	
8	0	0	0	0	512	573	0	500	39	5	
9	0	0	0	0	507	589	0	497	38	5	
10	0	0	0	0	503	607	0	496	39	5	
11	0	0	0	0	511	624	0	498	39	5	
12	0	0	0	0	510	639	0	501	38	5	
13	0	0	0	0	508	655	0	504	39	4	
14	0	0	0	0	504	672	0	498	39	4	
15	0	0	0	0	502	691	0	494	39	5	
0	0	0	0	0	511	711	0	495	39	5	
1	0	0	0	0	508	731	0	496	39	5	
2	0	0	0	0	501	748	0	497	39	5	
3	0	0	0	0	511	765	0	497	39	5	
4	0	0	0	0	507	782	0	498	38	5	
5	0	0	0	0	513	796	0	501	39	4	
6	0	0	0	0	504	805	0	498	39	4	
7	0	0	0	0	508	813	0	492	39	5	
8	0	0	0	0	512	818	0	492	39	5	
9	0	0	0	0	513	816	0	493	39	5	
10	0	0	0	0	504	808	0	497	38	5	
11	0	0	0	0	506	797	0	497	38	5	
12	0	0	0	0	505	784	0	499	38	5	
13	0	0	0	0	508	768	0	499	39	5	
14	0	0	0	0	504	752	0	497	39	4	
15	0	0	0	0	504	732	0	495	39	5	
0	0	0	0	0	507	709	0	497	39	5	
1	0	0	0	0	509	683	0	499	39	5	
2	0	0	0	0	507	656	0	497	38	5	
3	0	0	0	0	507	631	0	497	39	5	
4	0	0	0	0	505	601	0	499	38	5	
5	0	0	0	0	508	567	0	497	39	5	
6	0	0	0	0	512	532	0	493	39	5	
7	0	0	0	0	512	498	0	488	39	5	
8	0	0	0	0	512	472	0	486	39	5	
9	0	0	0	0	507	443	0	487	39	5	
10	0	0	0	0	501	408	0	488	38	5	
11	0	0	0	0	507	382	0	491	38	5	
12	0	0	0	0	504	365	0	492	38	5	
13	0	0	0	0	506	355	0	491	39	5	
14	0	0	0	0	510	350	0	488	39	5	
15	0	0	0	0	514	350	0	483	39	5	
0	0	0	0	0	507	353	0	482	39	5	
1	0	0	0	0	510	359	0	481	39	5	
2	0	0	0	0	501	366	0	482	39	5	
3	0	0	0	0	512	374	0	484	38	5	
4	0	0	0	0	509	383	0	486	38	5	
5	0	0	0	0	510	390	0	488	38	5	
6	0	0	0	0	511	398	0	484	39	5	
7	0	0	0	0	508	404	0	482	39	5	
8	0	0	0	0	516	410	0	481	39	4	
9	0	0	0	0	504	416	0	483	39	5	
10	0	0	0	0	512	422	0	486	38	5	
11	0	0	0	0	499	426	0	505	38	5	
12	0	0	0	0	511	428	0	529	38	5	
13	0	0	0	0	511	432	0	536	39	5	
14	0	0	0	0	507	436	0	555	39	5	
15	0	0	0	0	508	440	0	559	39	5	
0	0	0	0	0	503	443	0	564	39	5	
1	0	0	0	0	505	446	0	571	39	5	
2	0	0	0	0	511	451	0	566	39	5	
3	0	0	0	0	519	457	0	578	38	5	
4	0	0	0	0	506	461	0	572	38	5	
5	0	0	0	0	507	466	0	573	39	5	
6	0	0	0	0	501	471	0	575	39	5	
7	0	0	0	0	510	474	0	563	39	5	
8	0	0	0	0	504	476	0	572	39	4	
9	0	0	0	0	517	475	0	567	39	5	
10	0	0	0	0	508	472	0	570	39	5	
11	0	0	0	0	503	471	0	585	39	5	
12	0	0	0	0	502	470	0	567	38	5	
13	0	0	0	0	509	469	0	572	39	5	
14	0	0	0	0	508	468	0	561	39	5	
15	0	0	0	0	509	467	0	557	39	5	
0	0	0	0	0	505	465	0	561	39	4	
1	0	0	0	0	511	463	0	555	38	5	
2	0	0	0	0	506	466	0	564	39	5	
3	0	0	0	0	506	468	0	560	38	5	
4	0	0	0	0	507	470	0	558	38	5	
5	0	0	0	0	512	473	0	559	38	5	
6	0	0	0	0	512	477	0	548	38	5	
7	0	0	0	0	507	480	0	539	39	5	
8	0	0	0	0	510	483	0	525	39	4	
9	0	0	0	0	504	487	0	511	38	4	
10	0	0	0	0	504	487	0	502	39	5	
11	0	0	0	0	509	485	0	496	39	5	
12	0	0	0	0	509	485	0	491	38	5	
13	0	0	0	0	501	484	0	487	38	5	
14	0	0	0	0	508	485	0	484	38	5	
15	0	0	0	0	512	486	0	480	39	5	
0	0	0	0	0	504	488	0	472	39	5	
1	0	0	0	0	503	491	0	473	39	4	
2	0	0	0	0	508	491	0	475	39	5	
3	0	0	0	0	507	492	0	475	38	5	
4	0	0	0	0	510	492	0	478	38	5	
5	0	0	0	0	512	489	0	480	38	5	
6	0	0	0	0	512	487	0	479	39	5	
7	0	0	0	0	503	486	0	475	39	5	
8	0	0	0	0	506	485	0	472	39	5	
9	0	0	0	0	508	484	0	474	39	4	
10	0	0	0	0	505	483	0	478	39	4	
11	0	0	0	0	505	483	0	480	39	5	
12	0	0	0	0	501	481	0	481	38	5	
13	0	0	0	0	508	480	0	480	39	5	
14	0	0	0	0	507	480	0	481	39	5	
15	0	0	0	0	508	478	0	480	39	5	
0	0	0	0	0	510	476	0	480	39	5	
1	0	0	0	0	509	474	0	480	38	4	
2	0	0	0	0	511	477	0	482	39	4	
3	0	0	0	0	519	479	0	493	38	5	
4	0	0	0	0	508	481	0	519	38	5	
5	0	0	0	0	516	481	0	527	39	5	
6	0	0	0	0	507	480	0	543	39	5	
7	0	0	0	0	503	481	0	546	39	5	
8	0	0	0	0	507	480	0	546	39	5	
9	0	0	0	0	503	478	0	560	39	5	
10	0	0	0	0	506	476	0	557	39	4	
11	0	0	0	0	505	477	0	564	38	5	
12	0	0	0	0	500	478	0	565	38	5	
13	0	0	0	0	512	479	0	561	38	5	
14	0	0	0	0	510	482	0	565	38	5	
15	0	0	0	0	508	485	0	551	39	5	
0	0	0	0	0	508	488	0	545	39	5	
1	0	0	0	0	502	492	0	528	39	5	
2	0	0	0	0	505	492	0	513	39	4	
3	0	0	0	0	504	492	0	501	39	4	
4	0	0	0	0	505	496	0	492	38	5	
5	0	0	0	0	511	502	0	485	38	5	
6	0	0	0	0	511	506	0	480	38	5	
7	0	0	0	0	512	508	0	477	39	5	
8	0	0	0	0	517	506	0	472	39	5	
9	0	0	0	0	508	505	0	473	39	5	
10	0	0	0	0	506	505	0	472	39	4	
11	0	0	0	0	502	506	0	474	38	4	
12	0	0	0	0	501	510	0	478	38	5	
13	0	0	0	0	509	511	0	492	39	5	
14	0	0	0	0	510	511	0	475	39	5	
15	0	0	0	0	509	509	0	469	39	5	
0	0	0	0	0	504	510	0	467	39	5	
1	0	0	0	0	502	511	0	470	38	5	
2	0	0	0	0	504	511	0	472	38	4	
3	0	0	0	0	514	511	0	476	39	4	
4	0	0	0	0	515	510	0	478	38	4	
5	0	0	0	0	506	509	0	479	38	5	
6	0	0	0	0	507	508	0	480	39	5	
7	0	0	0	0	511	508	0	475	39	5	
8	0	0	0	0	504	510	0	475	39	5	
9	0	0	0	0	508	514	0	474	39	5	
10	0	0	0	0	508	515	0	475	39	5	
11	0	0	0	0	510	515	0	477	38	4	
12	0	0	0	0	506	513	0	485	38	4	
13	0	0	0	0	509	514	0	508	39	5	
14	0	0	0	0	508	516	0	517	39	5	
15	0	0	0	0	511	515	0	534	39	5	
0	0	0	0	0	506	516	0	550	39	5	
1	0	0	0	0	509	515	0	553	39	5	
2	0	0	0	0	511	515	0	567	39	5	
3	0	0	0	0	506	517	0	567	39	4	
4	0	0	0	0	511	519	0	568	38	4	
5	0	0	0	0	505	521	0	572	39	5	
6	0	0	0	0	504	523	0	562	38	5	
7	0	0	0	0	507	522	0	569	39	5	
8	0	0	0	0	507	521	0	561	39	5	
9	0	0	0	0	504	522	0	557	38	5	
10	0	0	0	0	509	522	0	539	39	5	
11	0	0	0	0	512	523	0	523	38	4	
12	0	0	0	0	502	524	0	511	38	4	
13	0	0	0	0	508	526	0	501	38	4	
14	0	0	0	0	508	525	0	494	38	5	
15	0	0	0	0	508	521	0	487	39	5	
0	0	0	0	0	504	518	0	483	39	5	
1	0	0	0	0	503	516	0	480	39	5	
2	0	0	0	0	510	514	0	480	38	5	
3	0	0	0	0	509	515	0	481	38	4	
4	0	0	0	0	506	517	0	480	38	4	
5	0	0	0	0	505	519	0	481	39	4	
6	0	0	0	0	509	519	0	477	38	5	
7	0	0	0	0	503	519	0	472	39	5	
8	0	0	0	0	505	519	0	471	39	5	
9	0	0	0	0	512	519	0	473	39	5	
10	0	0	0	0	510	522	0	476	38	5	
11	0	0	0	0	510	525	0	480	39	4	
12	0	0	0	0	505	528	0	483	38	4	
13	0	0	0	0	513	534	0	484	39	4	
14	0	0	0	0	506	537	0	483	39	5	
15	0	0	0	0	512	537	0	481	39	5	
0	0	0	0	0	502	537	0	481	39	5	
1	0	0	0	0	507	537	0	482	39	5	
2	0	0	0	0	509	535	0	485	39	5	
3	0	0	0	0	507	533	0	487	39	5	
4	0	0	0	0	514	532	0	491	38	4	
5	0	0	0	0	500	529	0	493	39	4	
6	0	0	0	0	506	527	0	512	38	4	
7	0	0	0	0	508	528	0	526	39	5	
8	0	0	0	0	509	527	0	540	39	5	
9	0	0	0	0	508	526	0	552	39	5	
10	0	0	0	0	503	525	0	552	38	5	
11	0	0	0	0	501	530	0	564	38	5	
12	0	0	0	0	513	535	0	569	38	5	
13	0	0	0	0	507	538	0	567	39	4	
14	0	0	0	0	506	541	0	575	38	4	
15	0	0	0	0	507	544	0	563	39	5	
0	0	0	0	0	508	547	0	565	39	5	
1	0	0	0	0	509	547	0	566	38	5	
2	0	0	0	0	504	547	0	561	39	5	
3	0	0	0	0	510	547	0	548	38	5	
4	0	0	0	0	503	547	0	534	38	5	
5	0	0	0	0	508	552	0	521	38	4	
6	0	0	0	0	513	564	0	509	39	4	
7	0	0	0	0	513	572	0	499	39	5	
8	0	0	0	0	508	576	0	492	39	5	
9	0	0	0	0	503	576	0	488	38	5	
10	0	0	0	0	501	570	0	488	38	5	
11	0	0	0	0	508	567	0	487	38	5	
12	0	0	0	0	505	563	0	483	38	5	
13	0	0	0	0	504	561	0	482	39	4	
14	0	0	0	0	509	560	0	480	39	4	
15	0	0	0	0	510	559	0	474	39	5	
0	0	0	0	0	504	561	0	472	39	5	
1	0	0	0	0	507	564	0	475	38	5	
2	0	0	0	0	512	567	0	479	38	5	
3	0	0	0	0	509	569	0	484	38	5	
4	0	0	0	0	513	569	0	484	38	5	
5	0	0	0	0	503	568	0	486	39	5	
6	0	0	0	0	508	567	0	485	39	4	
7	0	0	0	0	498	567	0	482	39	5	
8	0	0	0	0	507	567	0	483	39	5	
9	0	0	0	0	511	568	0	484	39	5	
10	0	0	0	0	511	568	0	486	38	5	
11	0	0	0	0	511	566	0	490	39	5	
12	0	0	0	0	504	564	0	499	38	5	
13	0	0	0	0	506	563	0	490	39	5	
14	0	0	0	0	505	561	0	485	39	4	
15	0	0	0	0	511	562	0	481	39	5	
0	0	0	0	0	514	563	0	478	39	5	
1	0	0	0	0	513	563	0	484	39	5	
2	0	0	0	0	508	562	0	512	39	5	
3	0	0	0	0	499	564	0	527	38	5	
4	0	0	0	0	504	563	0	541	38	5	
5	0	0	0	0	504	564	0	555	38	5	
6	0	0	0	0	503	565	0	554	38	5	
7	0	0	0	0	507	565	0	564	39	5	
8	0	0	0	0	516	564	0	561	39	5	
9	0	0	0	0	508	563	0	564	38	5	
10	0	0	0	0	510	560	0	569	39	5	
11	0	0	0	0	507	556	0	563	39	5	
12	0	0	0	0	512	553	0	571	38	5	
13	0	0	0	0	510	550	0	565	39	5	
14	0	0	0	0	508	550	0	563	38	5	
15	0	0	0	0	509	550	0	568	39	5	
0	0	0	0	0	512	549	0	561	39	5	
1	0	0	0	0	507	545	0	550	39	5	
2	0	0	0	0	510	545	0	533	39	5	
3	0	0	0	0	511	549	0	516	39	5	
4	0	0	0	0	510	557	0	504	38	5	
5	0	0	0	0	504	560	0	494	39	5	
6	0	0	0	0	504	561	0	488	39	5	
7	0	0	0	0	505	564	0	478	39	5	
8	0	0	0	0	511	566	0	472	39	5	
9	0	0	0	0	509	566	0	472	39	5	
10	0	0	0	0	509	564	0	476	39	5	
11	0	0	0	0	500	563	0	472	38	5	
12	0	0	0	0	507	563	0	472	38	5	
13	0	0	0	0	511	567	0	472	39	5	
14	0	0	0	0	511	568	0	472	39	5	
15	0	0	0	0	501	564	0	469	39	5	
0	0	0	0	0	506	562	0	470	39	4	
1	0	0	0	0	508	558	0	471	39	5	
2	0	0	0	0	509	552	0	471	39	5	
3	0	0	0	0	507	548	0	473	39	5	
4	0	0	0	0	501	543	0	476	38	5	
5	0	0	0	0	505	536	0	478	39	5	
6	0	0	0	0	507	527	0	473	38	5	
7	0	0	0	0	509	519	0	469	38	5	
8	0	0	0	0	509	515	0	466	39	5	
9	0	0	0	0	508	513	0	465	38	5	
10	0	0	0	0	511	514	0	467	39	5	
11	0	0	0	0	506	514	0	468	39	5	
12	0	0	0	0	505	515	0	468	38	5	
13	0	0	0	0	510	516	0	480	38	5	
14	0	0	0	0	502	519	0	500	39	5	
15	0	0	0	0	510	523	0	507	39	5	
0	0	0	0	0	512	529	0	529	39	5	
1	0	0	0	0	512	535	0	535	39	5	
2	0	0	0	0	514	535	0	540	38	5	
3	0	0	0	0	504	532	0	552	38	5	
4	0	0	0	0	500	527	0	547	38	5	
5	0	0	0	0	501	522	0	554	38	5	
6	0	0	0	0	503	515	0	550	38	5	
7	0	0	0	0	511	511	0	544	39	5	
8	0	0	0	0	512	511	0	552	39	5	
9	0	0	0	0	509	512	0	550	38	5	
10	0	0	0	0	514	512	0	541	39	5	
11	0	0	0	0	510	509	0	526	38	5	
12	0	0	0	0	513	503	0	510	38	5	
13	0	0	0	0	507	498	0	498	38	5	
14	0	0	0	0	512	492	0	487	38	5	
15	0	0	0	0	506	486	0	479	39	5	
0	0	0	0	0	500	480	0	472	39	5	
1	0	0	0	0	510	476	0	467	39	5	
2	0	0	0	0	501	471	0	464	39	5	
3	0	0	0	0	504	465	0	465	39	5	
4	0	0	0	0	507	462	0	462	38	5	
5	0	0	0	0	509	462	0	461	39	5	
6	0	0	0	0	508	460	0	458	39	5	
7	0	0	0	0	501	457	0	454	39	5	
8	0	0	0	0	513	456	0	454	39	5	
9	0	0	0	0	505	456	0	455	39	5	
10	0	0	0	0	514	457	0	457	39	4	
11	0	0	0	0	502	457	0	459	39	5	
12	0	0	0	0	511	455	0	462	38	5	
13	0	0	0	0	504	457	0	465	39	5	
14	0	0	0	0	510	458	0	456	39	5	
15	0	0	0	0	506	459	0	452	39	5	
0	0	0	0	0	505	459	0	451	39	5	
1	0	0	0	0	511	460	0	451	39	5	
2	0	0	0	0	509	459	0	454	39	4	
3	0	0	0	0	508	455	0	454	38	5	
4	0	0	0	0	505	450	0	455	38	5	
5	0	0	0	0	503	446	0	457	39	5	
6	0	0	0	0	511	441	0	455	38	5	
7	0	0	0	0	510	440	0	453	38	5	
8	0	0	0	0	510	438	0	453	39	5	
9	0	0	0	0	507	435	0	457	38	5	
10	0	0	0	0	511	434	0	455	39	4	
11	0	0	0	0	504	435	0	456	38	4	
12	0	0	0	0	509	435	0	459	38	5	
13	0	0	0	0	503	433	0	459	38	5	
14	0	0	0	0	511	431	0	458	38	5	
15	0	0	0	0	508	428	0	455	38	5	
0	0	0	0	0	509	424	0	452	39	5	
1	0	0	0	0	506	419	0	455	38	5	
2	0	0	0	0	508	417	0	456	38	5	
3	0	0	0	0	504	416	0	457	39	4	
4	0	0	0	0	500	417	0	461	38	5	
5	0	0	0	0	507	418	0	463	39	5	
6	0	0	0	0	515	420	0	463	39	5	
7	0	0	0	0	511	423	0	457	39	5	
8	0	0	0	0	507	429	0	455	39	5	
9	0	0	0	0	515	432	0	457	38	5	
10	0	0	0	0	503	430	0	459	38	5	
11	0	0	0	0	506	430	0	462	39	4	
12	0	0	0	0	510	433	0	464	38	5	
13	0	0	0	0	510	435	0	463	38	5	
14	0	0	0	0	504	437	0	461	39	5	
15	0	0	0	0	510	438	0	459	39	5	
0	0	0	0	0	501	439	0	463	39	5	
1	0	0	0	0	499	438	0	466	39	5	
2	0	0	0	0	509	438	0	466	38	5	
3	0	0	0	0	508	441	0	479	39	4	
4	0	0	0	0	505	440	0	506	38	4	
5	0	0	0	0	516	438	0	513	39	5	
6	0	0	0	0	514	437	0	530	38	5	
7	0	0	0	0	507	435	0	536	39	5	
8	0	0	0	0	502	433	0	539	39	5	
9	0	0	0	0	503	432	0	551	39	5	
10	0	0	0	0	509	430	0	550	39	5	
11	0	0	0	0	506	429	0	559	38	4	
12	0	0	0	0	508	427	0	557	38	4	
13	0	0	0	0	507	427	0	554	38	5	
14	0	0	0	0	505	428	0	560	38	5	
15	0	0	0	0	512	427	0	549	39	5	
0	0	0	0	0	507	425	0	553	39	5	
1	0	0	0	0	504	427	0	553	38	5	
2	0	0	0	0	510	432	0	550	39	5	
3	0	0	0	0	511	435	0	558	38	4	
4	0	0	0	0	508	435	0	551	38	4	
5	0	0	0	0	508	436	0	535	38	4	
6	0	0	0	0	506	438	0	540	38	5	
7	0	0	0	0	504	441	0	534	39	5	
8	0	0	0	0	508	443	0	532	39	5	
9	0	0	0	0	509	444	0	547	38	5	
10	0	0	0	0	512	445	0	547	39	5	
11	0	0	0	0	505	444	0	551	38	4	
12	0	0	0	0	506	445	0	558	38	4	
13	0	0	0	0	502	447	0	552	38	4	
14	0	0	0	0	499	450	0	562	38	5	
15	0	0	0	0	507	450	0	559	39	5	
0	0	0	0	0	510	451	0	552	39	5	
1	0	0	0	0	504	450	0	556	39	5	
2	0	0	0	0	513	447	0	550	38	5	
3	0	0	0	0	513	446	0	542	38	5	
4	0	0	0	0	506	446	0	527	38	4	
5	0	0	0	0	505	445	0	509	38	4	
6	0	0	0	0	508	447	0	499	39	5	
7	0	0	0	0	511	452	0	489	39	5	
8	0	0	0	0	505	457	0	480	39	5	
9	0	0	0	0	505	463	0	475	39	5	
10	0	0	0	0	512	466	0	472	39	5	
11	0	0	0	0	507	469	0	470	39	5	
12	0	0	0	0	509	473	0	468	38	4	
13	0	0	0	0	510	474	0	468	39	4	
14	0	0	0	0	504	471	0	464	38	4	
15	0	0	0	0	498	468	0	464	39	5	
0	0	0	0	0	515	466	0	475	39	5	
1	0	0	0	0	516	469	0	461	39	5	
2	0	0	0	0	510	470	0	466	39	5	
3	0	0	0	0	500	467	0	468	38	5	
4	0	0	0	0	505	466	0	470	38	5	
5	0	0	0	0	505	465	0	473	39	4	
6	0	0	0	0	508	467	0	475	39	4	
7	0	0	0	0	512	469	0	472	39	5	
8	0	0	0	0	511	470	0	474	39	5	
9	0	0	0	0	515	469	0	473	38	5	
10	0	0	0	0	505	467	0	475	39	5	
11	0	0	0	0	501	468	0	484	38	5	
12	0	0	0	0	505	467	0	512	38	5	
13	0	0	0	0	507	466	0	524	38	4	
14	0	0	0	0	504	465	0	536	39	4	
15	0	0	0	0	509	464	0	546	39	5	
0	0	0	0	0	505	463	0	545	39	5	
1	0	0	0	0	504	464	0	561	39	5	
2	0	0	0	0	511	469	0	559	39	5	
3	0	0	0	0	510	472	0	561	39	5	
4	0	0	0	0	508	475	0	566	38	5	
5	0	0	0	0	514	475	0	557	39	4	
6	0	0	0	0	508	472	0	564	39	4	
7	0	0	0	0	515	472	0	557	39	5	
8	0	0	0	0	504	471	0	557	39	5	
9	0	0	0	0	507	470	0	562	39	5	
10	0	0	0	0	498	469	0	556	38	5	
11	0	0	0	0	506	470	0	550	39	5	
12	0	0	0	0	510	471	0	536	38	5	
13	0	0	0	0	508	473	0	524	39	5	
14	0	0	0	0	504	478	0	506	39	4	
15	0	0	0	0	510	482	0	502	39	5	
0	0	0	0	0	507	485	0	522	39	5	
1	0	0	0	0	508	489	0	531	39	5	
2	0	0	0	0	503	490	0	536	39	5	
3	0	0	0	0	513	491	0	543	38	5	
4	0	0	0	0	511	491	0	558	38	5	
5	0	0	0	0	510	489	0	556	39	5	
6	0	0	0	0	511	484	0	552	39	4	
7	0	0	0	0	510	483	0	537	39	5	
8	0	0	0	0	506	482	0	522	39	5	
9	0	0	0	0	504	483	0	512	39	5	
10	0	0	0	0	513	486	0	503	39	5	
11	0	0	0	0	503	486	0	496	38	5	
12	0	0	0	0	503	483	0	490	38	5	
13	0	0	0	0	513	482	0	485	38	5	
14	0	0	0	0	504	480	0	484	38	5	
15	0	0	0	0	512	478	0	483	39	5	
0	0	0	0	0	508	476	0	474	39	5	
1	0	0	0	0	504	475	0	473	38	5	
2	0	0	0	0	511	473	0	472	39	5	
3	0	0	0	0	506	467	0	475	39	5	
4	0	0	0	0	503	463	0	476	38	5	
5	0	0	0	0	507	464	0	477	38	5	
6	0	0	0	0	511	471	0	476	38	5	
7	0	0	0	0	505	476	0	472	39	5	
8	0	0	0	0	508	479	0	472	39	5	
9	0	0	0	0	509	478	0	471	38	5	
10	0	0	0	0	512	475	0	472	39	5	
11	0	0	0	0	510	479	0	473	38	5	
12	0	0	0	0	507	488	0	475	38	5	
13	0	0	0	0	497	497	0	474	38	5	
14	0	0	0	0	508	503	0	471	38	5	
15	0	0	0	0	501	506	0	463	39	5	
0	0	0	0	0	501	506	0	460	39	4	
1	0	0	0	0	508	506	0	463	39	5	
2	0	0	0	0	512	507	0	473	39	5	
3	0	0	0	0	504	507	0	499	39	5	
4	0	0	0	0	508	507	0	513	38	5	
5	0	0	0	0	511	510	0	527	39	5	
6	0	0	0	0	512	508	0	540	39	5	
7	0	0	0	0	509	507	0	537	39	5	
8	0	0	0	0	511	508	0	548	39	4	
9	0	0	0	0	503	509	0	547	39	5	
10	0	0	0	0	510	509	0	550	39	5	
11	0	0	0	0	508	507	0	558	39	5	
12	0	0	0	0	503	505	0	552	38	5	
13	0	0	0	0	499	504	0	559	39	5	
14	0	0	0	0	508	502	0	551	39	5	
15	0	0	0	0	513	499	0	541	39	5	
0	0	0	0	0	511	497	0	529	39	5	
1	0	0	0	0	512	495	0	513	39	5	
2	0	0	0	0	508	492	0	501	39	5	
3	0	0	0	0	509	492	0	491	38	5	
4	0	0	0	0	508	488	0	487	38	5	
5	0	0	0	0	504	485	0	482	39	5	
6	0	0	0	0	509	485	0	478	39	5	
7	0	0	0	0	511	487	0	472	39	5	
8	0	0	0	0	507	486	0	469	39	5	
9	0	0	0	0	504	482	0	468	38	5	
10	0	0	0	0	494	480	0	469	39	5	
11	0	0	0	0	508	481	0	471	38	5	
12	0	0	0	0	507	485	0	472	38	5	
13	0	0	0	0	508	489	0	471	38	5	
14	0	0	0	0	509	493	0	472	38	5	
15	0	0	0	0	509	496	0	469	39	5	
0	0	0	0	0	505	499	0	465	39	5	
1	0	0	0	0	506	502	0	465	38	5	
2	0	0	0	0	503	504	0	467	38	5	
3	0	0	0	0	508	505	0	469	38	5	
4	0	0	0	0	512	505	0	472	38	5	
5	0	0	0	0	508	504	0	472	39	5	
6	0	0	0	0	510	502	0	469	39	5	
7	0	0	0	0	503	497	0	464	39	5	
8	0	0	0	0	510	495	0	465	39	5	
9	0	0	0	0	508	496	0	465	39	5	
10	0	0	0	0	508	494	0	467	39	5	
11	0	0	0	0	504	493	0	473	38	5	
12	0	0	0	0	506	495	0	497	38	5	
13	0	0	0	0	509	496	0	514	38	5	
14	0	0	0	0	502	496	0	523	39	5	
15	0	0	0	0	512	495	0	540	39	5	
0	0	0	0	0	509	495	0	541	39	5	
1	0	0	0	0	513	497	0	555	39	5	
2	0	0	0	0	503	501	0	573	39	5	
3	0	0	0	0	515	504	0	555	39	5	
4	0	0	0	0	512	505	0	561	38	5	
5	0	0	0	0	506	505	0	551	39	5	
6	0	0	0	0	501	503	0	556	39	5	
7	0	0	0	0	508	500	0	553	39	5	
8	0	0	0	0	510	497	0	550	39	5	
9	0	0	0	0	507	493	0	560	39	5	
10	0	0	0	0	504	491	0	556	39	5	
11	0	0	0	0	509	492	0	578	38	5	
12	0	0	0	0	510	496	0	560	38	5	
13	0	0	0	0	513	498	0	556	39	5	
14	0	0	0	0	502	499	0	561	38	5	
15	0	0	0	0	506	499	0	548	39	5	
0	0	0	0	0	507	496	0	539	39	5	
1	0	0	0	0	506	492	0	523	38	5	
2	0	0	0	0	505	490	0	508	38	5	
3	0	0	0	0	506	490	0	500	39	5	
4	0	0	0	0	509	492	0	491	38	5	
5	0	0	0	0	507	492	0	483	38	5	
6	0	0	0	0	499	494	0	478	38	5	
7	0	0	0	0	507	500	0	472	39	5	
8	0	0	0	0	504	506	0	466	39	5	
9	0	0	0	0	513	510	0	465	39	5	
10	0	0	0	0	512	512	0	462	38	5	
11	0	0	0	0	504	517	0	460	38	4	
12	0	0	0	0	513	521	0	463	38	5	
13	0	0	0	0	505	523	0	465	38	5	
14	0	0	0	0	509	522	0	458	38	5	
15	0	0	0	0	512	523	0	450	39	5	
0	0	0	0	0	503	524	0	450	39	5	
1	0	0	0	0	504	523	0	451	38	5	
2	0	0	0	0	507	520	0	454	39	5	
3	0	0	0	0	513	518	0	458	39	4	
4	0	0	0	0	504	517	0	459	38	5	
5	0	0	0	0	508	517	0	459	39	5	
6	0	0	0	0	502	512	0	462	39	5	
7	0	0	0	0	502	507	0	459	39	5	
8	0	0	0	0	510	500	0	460	39	5	
9	0	0	0	0	510	497	0	461	39	5	
10	0	0	0	0	513	496	0	461	39	5	
11	0	0	0	0	511	499	0	462	39	4	
12	0	0	0	0	507	501	0	470	38	5	
13	0	0	0	0	514	504	0	496	39	5	
14	0	0	0	0	505	507	0	508	39	5	
15	0	0	0	0	508	506	0	525	39	5	
0	0	0	0	0	510	506	0	533	39	5	
1	0	0	0	0	507	508	0	535	39	5	
2	0	0	0	0	508	511	0	549	39	5	
3	0	0	0	0	506	509	0	547	38	4	
4	0	0	0	0	507	510	0	549	38	5	
5	0	0	0	0	504	510	0	551	39	5	
6	0	0	0	0	511	509	0	540	39	5	
7	0	0	0	0	509	507	0	547	39	5	
8	0	0	0	0	501	507	0	539	39	5	
9	0	0	0	0	508	510	0	531	38	5	
10	0	0	0	0	509	513	0	518	39	5	
11	0	0	0	0	507	513	0	505	39	5	
12	0	0	0	0	510	513	0	493	38	4	
13	0	0	0	0	504	512	0	483	39	5	
14	0	0	0	0	499	512	0	476	39	5	
15	0	0	0	0	512	510	0	472	39	5	
0	0	0	0	0	508	506	0	466	39	5	
1	0	0	0	0	504	505	0	462	39	5	
2	0	0	0	0	512	507	0	461	39	5	
3	0	0	0	0	509	507	0	462	38	5	
4	0	0	0	0	510	510	0	463	38	4	
5	0	0	0	0	506	512	0	464	39	5	
6	0	0	0	0	507	512	0	463	39	5	
7	0	0	0	0	511	511	0	458	39	5	
8	0	0	0	0	508	506	0	455	39	5	
9	0	0	0	0	510	503	0	460	39	5	
10	0	0	0	0	503	501	0	464	39	5	
11	0	0	0	0	503	499	0	465	39	5	
12	0	0	0	0	502	499	0	468	38	5	
13	0	0	0	0	508	503	0	468	39	4	
14	0	0	0	0	506	504	0	468	39	5	
15	0	0	0	0	507	503	0	465	39	5	
0	0	0	0	0	503	505	0	465	39	5	
1	0	0	0	0	503	511	0	467	39	5	
2	0	0	0	0	511	514	0	471	38	5	
3	0	0	0	0	510	517	0	474	38	5	
4	0	0	0	0	519	519	0	488	38	5	
5	0	0	0	0	513	521	0	475	39	4	
6	0	0	0	0	505	520	0	494	38	5	
7	0	0	0	0	504	519	0	508	39	5	
8	0	0	0	0	512	516	0	518	39	5	
9	0	0	0	0	509	513	0	538	39	5	
10	0	0	0	0	508	513	0	540	39	5	
11	0	0	0	0	510	512	0	551	38	5	
12	0	0	0	0	511	510	0	555	38	5	
13	0	0	0	0	505	508	0	557	39	4	
14	0	0	0	0	506	508	0	563	39	4	
15	0	0	0	0	503	510	0	554	39	5	
0	0	0	0	0	509	512	0	558	39	5	
1	0	0	0	0	509	513	0	559	38	5	
2	0	0	0	0	508	514	0	556	38	5	
3	0	0	0	0	505	513	0	563	38	5	
4	0	0	0	0	509	515	0	556	38	5	
5	0	0	0	0	515	515	0	562	38	5	
6	0	0	0	0	508	515	0	556	38	4	
7	0	0	0	0	504	515	0	548	39	5	
8	0	0	0	0	503	513	0	536	39	5	
9	0	0	0	0	509	511	0	521	38	5	
10	0	0	0	0	511	510	0	507	38	5	
11	0	0	0	0	505	509	0	494	38	5	
12	0	0	0	0	506	510	0	487	38	5	
13	0	0	0	0	500	513	0	483	38	5	
14	0	0	0	0	501	518	0	481	38	4	
15	0	0	0	0	515	520	0	474	39	5	
0	0	0	0	0	512	521	0	470	39	5	
1	0	0	0	0	513	521	0	467	39	5	
2	0	0	0	0	505	521	0	466	38	5	
3	0	0	0	0	503	519	0	467	38	5	
4	0	0	0	0	501	515	0	467	38	5	
5	0	0	0	0	507	511	0	467	39	5	
6	0	0	0	0	510	507	0	470	39	4	
7	0	0	0	0	517	502	0	473	39	5	
8	0	0	0	0	514	497	0	467	39	5	
9	0	0	0	0	513	499	0	468	38	5	
10	0	0	0	0	510	500	0	470	39	5	
11	0	0	0	0	504	502	0	472	39	5	
12	0	0	0	0	500	508	0	474	38	5	
13	0	0	0	0	504	516	0	474	39	5	
14	0	0	0	0	504	524	0	471	39	5	
15	0	0	0	0	512	531	0	467	39	5	
0	0	0	0	0	501	540	0	469	39	5	
1	0	0	0	0	511	544	0	470	39	5	
2	0	0	0	0	501	543	0	471	39	5	
3	0	0	0	0	508	540	0	473	38	5	
4	0	0	0	0	514	536	0	476	38	5	
5	0	0	0	0	512	534	0	478	38	5	
6	0	0	0	0	509	534	0	475	38	5	
7	0	0	0	0	509	535	0	472	39	5	
8	0	0	0	0	513	532	0	472	39	5	
9	0	0	0	0	499	531	0	472	38	5	
10	0	0	0	0	514	531	0	478	39	5	
11	0	0	0	0	499	527	0	478	39	5	
12	0	0	0	0	507	521	0	478	38	5	
13	0	0	0	0	507	515	0	480	39	5	
14	0	0	0	0	507	509	0	497	39	5	
15	0	0	0	0	499	504	0	515	39	5	
0	0	0	0	0	512	503	0	523	39	5	
1	0	0	0	0	502	505	0	544	38	5	
2	0	0	0	0	509	508	0	549	39	5	
3	0	0	0	0	512	513	0	556	39	5	
4	0	0	0	0	508	516	0	563	38	5	
5	0	0	0	0	506	514	0	556	39	5	
6	0	0	0	0	507	512	0	565	39	5	
7	0	0	0	0	504	510	0	556	39	5	
8	0	0	0	0	508	512	0	551	39	4	
9	0	0	0	0	509	516	0	556	39	5	
10	0	0	0	0	510	519	0	550	39	5	
11	0	0	0	0	511	521	0	560	39	5	
12	0	0	0	0	507	524	0	555	38	5	
13	0	0	0	0	499	526	0	555	39	5	
14	0	0	0	0	501	527	0	559	39	5	
15	0	0	0	0	516	521	0	551	39	5	
0	0	0	0	0	509	518	0	542	39	5	
1	0	0	0	0	510	517	0	529	39	5	
2	0	0	0	0	512	515	0	513	39	5	
3	0	0	0	0	500	510	0	513	38	5	
4	0	0	0	0	498	505	0	490	38	5	
5	0	0	0	0	507	503	0	484	39	5	
6	0	0	0	0	508	502	0	480	39	5	
7	0	0	0	0	508	502	0	476	39	5	
8	0	0	0	0	509	501	0	471	39	5	
9	0	0	0	0	507	502	0	468	39	5	
10	0	0	0	0	509	504	0	469	39	5	
11	0	0	0	0	509	504	0	472	39	5	
12	0	0	0	0	509	502	0	477	38	5	
13	0	0	0	0	505	502	0	481	38	5	
14	0	0	0	0	511	503	0	476	38	5	
15	0	0	0	0	506	505	0	472	39	5	
0	0	0	0	0	504	508	0	471	39	5	
1	0	0	0	0	514	511	0	472	39	5	
2	0	0	0	0	499	512	0	473	39	5	
3	0	0	0	0	501	512	0	477	39	5	
4	0	0	0	0	512	512	0	479	38	5	
5	0	0	0	0	507	511	0	479	38	5	
6	0	0	0	0	516	510	0	478	39	5	
7	0	0	0	0	508	509	0	476	39	5	
8	0	0	0	0	501	508	0	476	39	5	
9	0	0	0	0	507	508	0	479	39	5	
10	0	0	0	0	517	507	0	485	38	5	
11	0	0	0	0	511	506	0	482	38	5	
12	0	0	0	0	505	505	0	498	38	5	
13	0	0	0	0	503	505	0	524	39	5	
14	0	0	0	0	507	507	0	529	39	5	
15	0	0	0	0	502	507	0	545	39	5	
0	0	0	0	0	511	504	0	551	39	5	
1	0	0	0	0	511	501	0	553	38	5	
2	0	0	0	0	508	497	0	564	39	5	
3	0	0	0	0	509	491	0	561	39	5	
4	0	0	0	0	507	486	0	569	38	5	
5	0	0	0	0	506	486	0	568	39	5	
6	0	0	0	0	513	485	0	561	39	5	
7	0	0	0	0	500	481	0	566	39	5	
8	0	0	0	0	513	476	0	557	39	5	
9	0	0	0	0	511	476	0	550	39	5	
10	0	0	0	0	501	480	0	536	38	5	
11	0	0	0	0	505	482	0	520	38	5	
12	0	0	0	0	510	488	0	510	38	5	
13	0	0	0	0	505	491	0	501	39	5	
14	0	0	0	0	519	496	0	495	39	5	
15	0	0	0	0	508	504	0	490	39	5	
0	0	0	0	0	501	511	0	488	39	5	
1	0	0	0	0	504	515	0	482	38	5	
2	0	0	0	0	502	517	0	483	39	5	
3	0	0	0	0	508	518	0	483	38	5	
4	0	0	0	0	505	515	0	483	38	5	
5	0	0	0	0	510	515	0	485	38	5	
6	0	0	0	0	511	515	0	483	38	5	
7	0	0	0	0	507	515	0	479	39	5	
8	0	0	0	0	510	512	0	477	39	5	
9	0	0	0	0	508	505	0	480	38	5	
10	0	0	0	0	507	495	0	487	38	5	
11	0	0	0	0	505	485	0	481	38	5	
12	0	0	0	0	510	480	0	483	38	5	
13	0	0	0	0	508	478	0	483	38	5	
14	0	0	0	0	503	476	0	480	38	5	
15	0	0	0	0	506	475	0	475	39	5	
0	0	0	0	0	508	476	0	473	39	5	
1	0	0	0	0	513	477	0	475	39	5	
2	0	0	0	0	504	475	0	476	39	5	
3	0	0	0	0	510	476	0	476	38	5	
4	0	0	0	0	508	483	0	479	38	5	
5	0	0	0	0	508	493	0	488	39	5	
6	0	0	0	0	507	504	0	513	38	5	
7	0	0	0	0	512	514	0	521	39	5	
8	0	0	0	0	512	526	0	535	39	5	
9	0	0	0	0	509	541	0	551	38	5	
10	0	0	0	0	502	557	0	552	39	5	
11	0	0	0	0	505	572	0	566	39	5	
12	0	0	0	0	515	583	0	563	38	5	
13	0	0	0	0	511	593	0	566	39	5	
14	0	0	0	0	510	608	0	568	39	5	
15	0	0	0	0	507	627	0	559	39	5	
0	0	0	0	0	508	647	0	568	39	5	
1	0	0	0	0	514	663	0	562	39	5	
2	0	0	0	0	511	679	0	556	38	5	
3	0	0	0	0	505	695	0	542	39	5	
4	0	0	0	0	505	713	0	526	38	5	
5	0	0	0	0	504	734	0	511	39	5	
6	0	0	0	0	498	756	0	498	39	5	
7	0	0	0	0	508	772	0	488	39	5	
8	0	0	0	0	504	787	0	494	39	5	
9	0	0	0	0	510	800	0	519	39	5	
10	0	0	0	0	506	814	0	535	39	5	
11	0	0	0	0	508	822	0	533	39	4	
12	0	0	0	0	507	825	0	528	38	5	
13	0	0	0	0	518	823	0	521	38	5	
14	0	0	0	0	506	818	0	514	38	5	
15	0	0	0	0	514	808	0	505	39	5	
0	0	0	0	0	506	797	0	498	39	5	
1	0	0	0	0	508	782	0	493	38	5	
2	0	0	0	0	500	765	0	489	38	5	
3	0	0	0	0	504	741	0	491	39	5	
4	0	0	0	0	510	715	0	489	38	5	
5	0	0	0	0	503	690	0	486	38	5	
6	0	0	0	0	506	661	0	482	38	5	
7	0	0	0	0	507	628	0	478	39	5	
8	0	0	0	0	513	596	0	474	39	5	
9	0	0	0	0	505	568	0	475	39	5	
10	0	0	0	0	505	542	0	477	38	5	
11	0	0	0	0	514	515	0	477	38	5	
12	0	0	0	0	506	489	0	479	38	5	
13	0	0	0	0	509	462	0	482	39	5	
14	0	0	0	0	510	435	0	489	38	5	
15	0	0	0	0	511	410	0	474	39	5	
0	0	0	0	0	510	389	0	473	39	5	
1	0	0	0	0	512	375	0	476	38	5	
2	0	0	0	0	508	366	0	479	38	5	
3	0	0	0	0	501	362	0	482	38	5	
4	0	0	0	0	505	361	0	483	38	5	
5	0	0	0	0	513	363	0	484	39	5	
6	0	0	0	0	510	365	0	487	39	5	
7	0	0	0	0	510	371	0	488	39	5	
8	0	0	0	0	508	379	0	515	39	5	
9	0	0	0	0	510	385	0	529	38	5	
10	0	0	0	0	505	391	0	545	38	5	
11	0	0	0	0	505	397	0	563	38	5	
12	0	0	0	0	513	399	0	564	38	5	
13	0	0	0	0	506	402	0	576	39	4	
14	0	0	0	0	510	405	0	570	39	5	
15	0	0	0	0	503	409	0	570	39	5	
0	0	0	0	0	512	413	0	576	39	5	
1	0	0	0	0	504	417	0	573	39	5	
2	0	0	0	0	507	421	0	581	38	5	
3	0	0	0	0	506	426	0	576	39	5	
4	0	0	0	0	505	428	0	571	38	5	
5	0	0	0	0	507	430	0	569	39	4	
6	0	0	0	0	510	432	0	575	39	4	
7	0	0	0	0	510	437	0	564	39	5	
8	0	0	0	0	513	443	0	558	39	5	
9	0	0	0	0	506	447	0	544	38	5	
10	0	0	0	0	507	450	0	531	38	5	
11	0	0	0	0	504	457	0	522	38	5	
12	0	0	0	0	508	461	0	513	38	5	
13	0	0	0	0	507	465	0	508	38	4	
14	0	0	0	0	509	471	0	504	38	4	
15	0	0	0	0	509	474	0	501	39	5	
0	0	0	0	0	505	478	0	498	39	5	
1	0	0	0	0	509	481	0	497	38	5	
2	0	0	0	0	505	483	0	497	38	5	
3	0	0	0	0	506	486	0	497	38	5	
4	0	0	0	0	503	491	0	500	38	5	
5	0	0	0	0	506	493	0	502	38	5	
6	0	0	0	0	515	492	0	496	39	4	
7	0	0	0	0	505	491	0	490	39	5	
8	0	0	0	0	511	488	0	489	39	5	
9	0	0	0	0	505	487	0	492	39	5	
10	0	0	0	0	509	488	0	495	39	5	
11	0	0	0	0	508	491	0	496	38	5	
12	0	0	0	0	512	493	0	498	38	5	
13	0	0	0	0	504	492	0	499	38	5	
14	0	0	0	0	504	488	0	497	39	4	
15	0	0	0	0	502	485	0	495	39	4	
0	0	0	0	0	508	483	0	496	39	5	
1	0	0	0	0	504	477	0	498	39	5	
2	0	0	0	0	501	472	0	501	39	5	
3	0	0	0	0	513	469	0	502	39	5	
4	0	0	0	0	511	467	0	505	38	5	
5	0	0	0	0	510	471	0	504	39	5	
6	0	0	0	0	511	477	0	504	39	4	
7	0	0	0	0	507	477	0	516	39	4	
8	0	0	0	0	504	476	0	539	39	5	
9	0	0	0	0	508	473	0	549	39	5	
10	0	0	0	0	509	473	0	572	39	5	
11	0	0	0	0	504	472	0	578	39	5	
12	0	0	0	0	510	471	0	585	38	5	
13	0	0	0	0	505	470	0	593	39	5	
14	0	0	0	0	511	470	0	585	38	5	
15	0	0	0	0	509	472	0	595	39	4	
0	0	0	0	0	510	476	0	596	39	4	
1	0	0	0	0	506	483	0	589	39	5	
2	0	0	0	0	501	492	0	595	39	5	
3	0	0	0	0	509	497	0	588	38	5	
4	0	0	0	0	511	501	0	581	38	5	
5	0	0	0	0	513	505	0	589	38	5	
6	0	0	0	0	504	508	0	587	38	5	
7	0	0	0	0	507	509	0	579	39	5	
8	0	0	0	0	507	511	0	570	39	4	
9	0	0	0	0	506	512	0	555	38	5	
10	0	0	0	0	506	513	0	542	38	5	
11	0	0	0	0	513	513	0	531	38	5	
12	0	0	0	0	512	512	0	524	38	5	
13	0	0	0	0	502	511	0	518	39	5	
14	0	0	0	0	502	509	0	515	39	5	
15	0	0	0	0	512	509	0	511	39	5	
0	0	0	0	0	515	511	0	506	39	4	
1	0	0	0	0	508	510	0	506	39	5	
2	0	0	0	0	504	507	0	509	39	5	
3	0	0	0	0	504	503	0	509	39	5	
4	0	0	0	0	514	498	0	510	38	5	
5	0	0	0	0	507	494	0	510	39	5	
6	0	0	0	0	509	489	0	508	39	5	
7	0	0	0	0	506	488	0	505	39	5	
8	0	0	0	0	505	491	0	504	39	4	
9	0	0	0	0	508	492	0	505	39	5	
10	0	0	0	0	505	497	0	506	38	5	
11	0	0	0	0	511	500	0	508	39	5	
12	0	0	0	0	508	498	0	512	38	5	
13	0	0	0	0	508	494	0	511	38	5	
14	0	0	0	0	510	494	0	507	39	5	
15	0	0	0	0	501	493	0	504	39	5	
0	0	0	0	0	507	496	0	501	39	5	
1	0	0	0	0	510	504	0	504	38	5	
2	0	0	0	0	509	511	0	505	39	5	
3	0	0	0	0	510	513	0	507	38	5	
4	0	0	0	0	504	513	0	525	38	5	
5	0	0	0	0	515	514	0	548	39	5	
6	0	0	0	0	502	515	0	556	38	5	
7	0	0	0	0	515	513	0	576	39	5	
8	0	0	0	0	511	512	0	583	39	5	
9	0	0	0	0	512	507	0	586	39	5	
10	0	0	0	0	515	502	0	594	38	5	
11	0	0	0	0	510	495	0	591	38	5	
12	0	0	0	0	507	488	0	600	38	5	
13	0	0	0	0	507	487	0	596	39	5	
14	0	0	0	0	502	491	0	596	39	5	
15	0	0	0	0	506	495	0	598	39	5	
0	0	0	0	0	499	496	0	588	39	5	
1	0	0	0	0	505	497	0	580	39	5	
2	0	0	0	0	509	499	0	565	39	5	
3	0	0	0	0	509	503	0	548	38	5	
4	0	0	0	0	504	510	0	542	38	5	
5	0	0	0	0	507	517	0	523	39	5	
6	0	0	0	0	504	524	0	516	39	5	
7	0	0	0	0	508	527	0	507	39	5	
8	0	0	0	0	507	531	0	502	39	5	
9	0	0	0	0	503	532	0	500	39	5	
10	0	0	0	0	508	532	0	503	38	5	
11	0	0	0	0	505	535	0	503	39	5	
12	0	0	0	0	509	535	0	503	38	5	
13	0	0	0	0	508	530	0	505	39	5	
14	0	0	0	0	512	525	0	513	39	5	
15	0	0	0	0	515	521	0	538	39	5	
0	0	0	0	0	511	522	0	548	39	5	
1	0	0	0	0	507	524	0	568	39	5	
2	0	0	0	0	504	525	0	577	39	5	
3	0	0	0	0	504	524	0	576	39	5	
4	0	0	0	0	510	519	0	572	38	5	
5	0	0	0	0	507	515	0	582	39	5	
6	0	0	0	0	508	515	0	574	39	5	
7	0	0	0	0	505	519	0	566	38	5	
8	0	0	0	0	511	522	0	555	39	5	
9	0	0	0	0	507	526	0	540	39	5	
10	0	0	0	0	502	530	0	523	39	5	
11	0	0	0	0	512	535	0	511	39	5	
12	0	0	0	0	508	539	0	502	38	5	
13	0	0	0	0	510	543	0	498	39	5	
14	0	0	0	0	503	545	0	495	38	5	
15	0	0	0	0	512	547	0	489	39	5	
0	0	0	0	0	508	551	0	487	39	5	
1	0	0	0	0	509	553	0	489	38	5	
2	0	0	0	0	508	553	0	491	38	5	
3	0	0	0	0	503	551	0	494	38	5	
4	0	0	0	0	502	550	0	492	38	5	
5	0	0	0	0	512	546	0	491	39	5	
6	0	0	0	0	508	542	0	488	39	5	
7	0	0	0	0	508	540	0	486	39	5	
8	0	0	0	0	504	540	0	483	39	5	
9	0	0	0	0	508	540	0	484	39	5	
10	0	0	0	0	509	540	0	485	39	5	
11	0	0	0	0	511	542	0	490	38	5	
12	0	0	0	0	505	545	0	490	38	5	
13	0	0	0	0	503	541	0	489	39	5	
14	0	0	0	0	502	536	0	486	39	5	
15	0	0	0	0	509	539	0	482	39	5	
0	0	0	0	0	513	542	0	481	39	5	
1	0	0	0	0	512	542	0	484	39	5	
2	0	0	0	0	502	539	0	487	39	5	
3	0	0	0	0	511	534	0	491	39	5	
4	0	0	0	0	512	528	0	496	38	5	
5	0	0	0	0	506	525	0	508	39	5	
6	0	0	0	0	508	519	0	491	39	5	
7	0	0	0	0	509	514	0	488	39	5	
8	0	0	0	0	514	513	0	489	39	5	
9	0	0	0	0	504	516	0	490	39	5	
10	0	0	0	0	506	522	0	489	39	5	
11	0	0	0	0	507	533	0	490	39	5	
12	0	0	0	0	501	545	0	493	38	5	
13	0	0	0	0	509	555	0	496	39	5	
14	0	0	0	0	507	558	0	497	39	5	
15	0	0	0	0	508	561	0	508	39	5	
0	0	0	0	0	516	566	0	529	39	5	
1	0	0	0	0	515	568	0	537	39	5	
2	0	0	0	0	504	570	0	558	38	5	
3	0	0	0	0	508	572	0	563	39	5	
4	0	0	0	0	505	574	0	569	38	5	
5	0	0	0	0	505	576	0	575	39	5	
6	0	0	0	0	508	578	0	567	39	5	
7	0	0	0	0	507	578	0	576	39	5	
8	0	0	0	0	505	579	0	573	39	5	
9	0	0	0	0	508	578	0	573	38	5	
10	0	0	0	0	515	576	0	579	38	5	
11	0	0	0	0	513	573	0	573	38	5	
12	0	0	0	0	508	572	0	581	38	5	
13	0	0	0	0	502	572	0	577	38	5	
14	0	0	0	0	510	569	0	577	38	5	
15	0	0	0	0	508	568	0	582	39	5	
0	0	0	0	0	510	569	0	574	39	5	
1	0	0	0	0	504	568	0	563	38	5	
2	0	0	0	0	509	565	0	549	39	5	
3	0	0	0	0	507	564	0	533	38	5	
4	0	0	0	0	499	563	0	521	38	5	
5	0	0	0	0	511	566	0	513	38	5	
6	0	0	0	0	505	565	0	506	39	5	
7	0	0	0	0	507	566	0	497	39	5	
8	0	0	0	0	509	569	0	492	39	5	
9	0	0	0	0	504	572	0	493	39	5	
10	0	0	0	0	505	573	0	497	38	5	
11	0	0	0	0	510	573	0	499	39	5	
12	0	0	0	0	512	572	0	498	38	5	
13	0	0	0	0	505	571	0	499	39	5	
14	0	0	0	0	509	572	0	498	39	5	
15	0	0	0	0	508	570	0	496	39	5	
0	0	0	0	0	504	570	0	496	39	5	
1	0	0	0	0	503	569	0	498	39	5	
2	0	0	0	0	511	568	0	497	39	5	
3	0	0	0	0	502	567	0	499	39	5	
4	0	0	0	0	509	564	0	501	38	5	
5	0	0	0	0	505	561	0	499	39	5	
6	0	0	0	0	509	560	0	496	39	5	
7	0	0	0	0	504	560	0	492	39	5	
8	0	0	0	0	510	562	0	491	39	5	
9	0	0	0	0	515	565	0	492	38	5	
10	0	0	0	0	508	566	0	494	38	5	
11	0	0	0	0	508	564	0	495	39	5	
12	0	0	0	0	505	560	0	497	38	5	
13	0	0	0	0	505	556	0	513	39	4	
14	0	0	0	0	509	554	0	529	38	5	
15	0	0	0	0	508	552	0	534	39	5	
0	0	0	0	0	504	550	0	551	39	5	
1	0	0	0	0	512	550	0	563	38	5	
2	0	0	0	0	506	548	0	568	39	5	
3	0	0	0	0	507	548	0	581	39	5	
4	0	0	0	0	508	548	0	578	38	5	
5	0	0	0	0	510	549	0	584	38	5	
6	0	0	0	0	500	551	0	580	38	4	
7	0	0	0	0	508	551	0	572	38	5	
8	0	0	0	0	506	548	0	580	39	5	
9	0	0	0	0	507	545	0	575	39	5	
10	0	0	0	0	515	541	0	582	38	5	
11	0	0	0	0	503	537	0	584	38	5	
12	0	0	0	0	512	534	0	581	38	5	
13	0	0	0	0	507	533	0	588	38	5	
14	0	0	0	0	506	532	0	576	39	4	
15	0	0	0	0	511	534	0	569	39	4	
0	0	0	0	0	504	534	0	555	39	5	
1	0	0	0	0	509	529	0	540	39	5	
2	0	0	0	0	513	524	0	529	39	5	
3	0	0	0	0	505	519	0	521	38	5	
4	0	0	0	0	512	515	0	514	38	5	
5	0	0	0	0	497	508	0	508	38	5	
6	0	0	0	0	513	499	0	504	39	4	
7	0	0	0	0	499	494	0	499	39	4	
8	0	0	0	0	505	492	0	496	39	5	
9	0	0	0	0	510	492	0	497	39	5	
10	0	0	0	0	505	492	0	499	39	5	
11	0	0	0	0	504	494	0	504	39	5	
12	0	0	0	0	504	494	0	499	38	5	
13	0	0	0	0	502	494	0	498	39	5	
14	0	0	0	0	514	494	0	496	39	4	
15	0	0	0	0	505	491	0	491	39	4	
0	0	0	0	0	511	487	0	488	39	5	
1	0	0	0	0	504	482	0	490	39	5	
2	0	0	0	0	508	476	0	492	38	5	
3	0	0	0	0	511	469	0	494	39	5	
4	0	0	0	0	509	463	0	495	38	5	
5	0	0	0	0	507	460	0	497	39	5	
6	0	0	0	0	505	455	0	498	39	4	
7	0	0	0	0	500	453	0	492	39	4	
8	0	0	0	0	508	452	0	494	39	4	
9	0	0	0	0	516	453	0	496	39	5	
10	0	0	0	0	511	451	0	500	39	5	
11	0	0	0	0	508	451	0	510	38	5	
12	0	0	0	0	510	455	0	537	38	5	
13	0	0	0	0	508	460	0	551	38	5	
14	0	0	0	0	507	464	0	565	38	5	
15	0	0	0	0	507	465	0	579	39	4	
0	0	0	0	0	506	464	0	576	39	4	
1	0	0	0	0	503	462	0	587	39	4	
2	0	0	0	0	508	460	0	584	39	5	
3	0	0	0	0	508	458	0	584	38	5	
4	0	0	0	0	510	454	0	590	38	5	
5	0	0	0	0	513	447	0	583	39	5	
6	0	0	0	0	510	439	0	590	39	5	
7	0	0	0	0	507	435	0	582	39	4	
8	0	0	0	0	504	435	0	574	39	4	
9	0	0	0	0	513	438	0	560	39	5	
10	0	0	0	0	512	438	0	544	39	5	
11	0	0	0	0	507	436	0	536	38	5	
12	0	0	0	0	504	432	0	527	38	5	
13	0	0	0	0	503	433	0	516	39	5	
14	0	0	0	0	507	435	0	511	39	5	
15	0	0	0	0	506	432	0	508	39	5	
0	0	0	0	0	512	426	0	504	39	4	
1	0	0	0	0	513	421	0	502	39	4	
2	0	0	0	0	507	418	0	502	38	5	
3	0	0	0	0	507	424	0	503	39	5	
4	0	0	0	0	508	431	0	504	38	5	
5	0	0	0	0	508	432	0	504	39	5	
6	0	0	0	0	506	431	0	504	38	5	
7	0	0	0	0	507	428	0	497	38	5	
8	0	0	0	0	502	426	0	496	39	4	
9	0	0	0	0	507	423	0	496	39	4	
10	0	0	0	0	511	419	0	499	39	5	
11	0	0	0	0	507	416	0	501	39	5	
12	0	0	0	0	510	414	0	504	38	5	
13	0	0	0	0	512	415	0	505	39	5	
14	0	0	0	0	511	417	0	504	39	5	
15	0	0	0	0	507	419	0	500	39	5	
0	0	0	0	0	497	420	0	501	39	4	
1	0	0	0	0	505	425	0	503	39	4	
2	0	0	0	0	514	428	0	516	39	5	
3	0	0	0	0	508	430	0	506	38	5	
4	0	0	0	0	512	435	0	511	38	5	
5	0	0	0	0	509	439	0	534	39	5	
6	0	0	0	0	505	441	0	549	38	5	
7	0	0	0	0	509	438	0	559	38	5	
8	0	0	0	0	507	433	0	578	39	5	
9	0	0	0	0	502	428	0	579	39	4	
10	0	0	0	0	509	425	0	588	38	4	
11	0	0	0	0	505	426	0	589	39	5	
12	0	0	0	0	508	426	0	587	38	5	
13	0	0	0	0	507	426	0	594	38	5	
14	0	0	0	0	515	429	0	586	38	5	
15	0	0	0	0	509	432	0	584	38	5	
0	0	0	0	0	508	434	0	582	39	5	
1	0	0	0	0	504	436	0	576	38	4	
2	0	0	0	0	507	436	0	565	39	4	
3	0	0	0	0	512	435	0	550	39	5	
4	0	0	0	0	504	433	0	538	38	5	
5	0	0	0	0	503	429	0	527	39	5	
6	0	0	0	0	503	425	0	519	39	5	
7	0	0	0	0	504	423	0	513	39	5	
8	0	0	0	0	505	423	0	512	39	5	
9	0	0	0	0	505	424	0	508	39	5	
10	0	0	0	0	510	429	0	505	39	4	
11	0	0	0	0	513	437	0	506	39	5	
12	0	0	0	0	507	441	0	505	38	5	
13	0	0	0	0	505	443	0	504	39	5	
14	0	0	0	0	509	444	0	500	39	5	
15	0	0	0	0	512	444	0	495	39	5	
0	0	0	0	0	503	447	0	491	39	5	
1	0	0	0	0	511	452	0	495	39	5	
2	0	0	0	0	501	453	0	494	39	4	
3	0	0	0	0	508	453	0	495	39	4	
4	0	0	0	0	507	454	0	496	38	5	
5	0	0	0	0	509	455	0	495	39	5	
6	0	0	0	0	509	457	0	492	38	5	
7	0	0	0	0	506	460	0	487	38	5	
8	0	0	0	0	512	458	0	486	39	5	
9	0	0	0	0	502	455	0	489	38	5	
10	0	0	0	0	511	455	0	495	39	4	
11	0	0	0	0	513	457	0	495	38	4	
12	0	0	0	0	511	459	0	496	38	5	
13	0	0	0	0	507	459	0	496	38	5	
14	0	0	0	0	504	458	0	512	38	5	
15	0	0	0	0	504	459	0	529	38	5	
0	0	0	0	0	508	465	0	535	39	5	
1	0	0	0	0	504	468	0	557	38	5	
2	0	0	0	0	510	470	0	563	38	4	
3	0	0	0	0	505	470	0	569	38	4	
4	0	0	0	0	512	471	0	579	38	5	
5	0	0	0	0	512	473	0	572	38	5	
6	0	0	0	0	503	475	0	578	38	5	
7	0	0	0	0	508	475	0	570	38	5	
8	0	0	0	0	503	474	0	568	39	5	
9	0	0	0	0	504	475	0	572	38	5	
10	0	0	0	0	512	477	0	565	38	5	
11	0	0	0	0	513	477	0	556	38	4	
12	0	0	0	0	509	474	0	540	38	4	
13	0	0	0	0	507	470	0	525	38	5	
14	0	0	0	0	512	467	0	512	39	5	
15	0	0	0	0	510	465	0	506	39	5	
0	0	0	0	0	508	463	0	505	39	5	
1	0	0	0	0	502	460	0	493	39	5	
2	0	0	0	0	510	456	0	490	39	5	
3	0	0	0	0	500	451	0	489	39	4	
4	0	0	0	0	502	448	0	489	38	4	
5	0	0	0	0	505	449	0	488	39	5	
6	0	0	0	0	511	455	0	485	39	5	
7	0	0	0	0	511	464	0	481	39	5	
8	0	0	0	0	510	474	0	480	39	5	
9	0	0	0	0	504	483	0	478	38	5	
10	0	0	0	0	508	489	0	479	38	5	
11	0	0	0	0	504	497	0	481	38	4	
12	0	0	0	0	504	499	0	483	38	4	
13	0	0	0	0	509	498	0	484	39	5	
14	0	0	0	0	500	496	0	483	39	5	
15	0	0	0	0	510	495	0	480	39	5	
0	0	0	0	0	511	494	0	480	39	5	
1	0	0	0	0	503	492	0	484	38	5	
2	0	0	0	0	510	489	0	495	39	5	
3	0	0	0	0	508	485	0	488	38	5	
4	0	0	0	0	504	481	0	491	38	4	
5	0	0	0	0	503	478	0	491	39	4	
6	0	0	0	0	505	475	0	491	38	5	
7	0	0	0	0	508	470	0	498	39	5	
8	0	0	0	0	510	464	0	525	39	5	
9	0	0	0	0	511	463	0	536	39	5	
10	0	0	0	0	509	463	0	558	39	5	
11	0	0	0	0	501	458	0	567	39	5	
12	0	0	0	0	512	452	0	578	38	4	
13	0	0	0	0	512	452	0	576	39	4	
14	0	0	0	0	508	454	0	567	39	5	
15	0	0	0	0	506	455	0	572	39	5	
0	0	0	0	0	512	457	0	571	39	5	
1	0	0	0	0	509	460	0	569	39	5	
2	0	0	0	0	504	467	0	577	39	5	
3	0	0	0	0	508	478	0	569	39	5	
4	0	0	0	0	509	487	0	565	38	4	
5	0	0	0	0	498	496	0	568	39	4	
6	0	0	0	0	509	504	0	571	39	5	
7	0	0	0	0	509	508	0	559	39	5	
8	0	0	0	0	508	508	0	551	39	5	
9	0	0	0	0	512	506	0	537	38	5	
10	0	0	0	0	508	504	0	522	38	5	
11	0	0	0	0	507	502	0	510	39	5	
12	0	0	0	0	509	497	0	502	38	4	
13	0	0	0	0	507	489	0	495	39	4	
14	0	0	0	0	514	484	0	491	38	4	
15	0	0	0	0	504	489	0	506	39	5	
0	0	0	0	0	508	496	0	524	39	5	
1	0	0	0	0	510	496	0	530	38	5	
2	0	0	0	0	501	495	0	534	39	5	
3	0	0	0	0	506	493	0	527	39	5	
4	0	0	0	0	503	492	0	515	38	4	
5	0	0	0	0	507	492	0	505	39	4	
6	0	0	0	0	509	491	0	499	39	4	
7	0	0	0	0	500	493	0	493	39	5	
8	0	0	0	0	509	496	0	491	39	5	
9	0	0	0	0	507	499	0	486	39	5	
10	0	0	0	0	512	504	0	485	39	5	
11	0	0	0	0	502	506	0	484	38	5	
12	0	0	0	0	504	509	0	485	38	5	
13	0	0	0	0	508	509	0	483	39	4	
14	0	0	0	0	506	509	0	480	39	4	
15	0	0	0	0	511	507	0	477	39	5	
0	0	0	0	0	509	503	0	474	39	5	
1	0	0	0	0	512	500	0	478	39	5	
2	0	0	0	0	510	497	0	483	38	5	
3	0	0	0	0	509	493	0	482	39	5	
4	0	0	0	0	509	486	0	485	38	5	
5	0	0	0	0	510	482	0	485	38	4	
6	0	0	0	0	504	483	0	481	39	4	
7	0	0	0	0	504	484	0	476	39	4	
8	0	0	0	0	511	487	0	475	39	4	
9	0	0	0	0	510	491	0	476	39	5	
10	0	0	0	0	508	494	0	480	39	5	
11	0	0	0	0	504	497	0	480	38	5	
12	0	0	0	0	508	500	0	482	38	5	
13	0	0	0	0	504	502	0	482	39	4	
14	0	0	0	0	509	502	0	482	38	4	
15	0	0	0	0	510	500	0	480	38	4	
0	0	0	0	0	505	499	0	480	39	4	
1	0	0	0	0	504	497	0	481	38	5	
2	0	0	0	0	503	497	0	483	39	5	
3	0	0	0	0	510	499	0	486	39	5	
4	0	0	0	0	512	497	0	490	38	5	
5	0	0	0	0	512	495	0	487	39	4	
6	0	0	0	0	507	492	0	484	38	4	
7	0	0	0	0	504	489	0	480	39	4	
8	0	0	0	0	506	494	0	478	39	4	
9	0	0	0	0	507	497	0	479	38	4	
10	0	0	0	0	503	499	0	484	39	5	
11	0	0	0	0	507	499	0	488	38	5	
12	0	0	0	0	505	499	0	490	38	5	
13	0	0	0	0	515	498	0	493	39	5	
14	0	0	0	0	509	498	0	504	39	4	
15	0	0	0	0	505	496	0	487	39	4	
0	0	0	0	0	506	493	0	486	39	4	
1	0	0	0	0	508	489	0	487	38	4	
2	0	0	0	0	514	486	0	491	38	5	
3	0	0	0	0	505	486	0	494	38	5	
4	0	0	0	0	510	490	0	495	38	5	
5	0	0	0	0	510	494	0	494	38	5	
6	0	0	0	0	506	494	0	512	39	4	
7	0	0	0	0	506	492	0	527	39	4	
8	0	0	0	0	509	487	0	532	39	4	
9	0	0	0	0	508	483	0	554	39	4	
10	0	0	0	0	512	480	0	560	38	4	
11	0	0	0	0	512	479	0	568	38	5	
12	0	0	0	0	506	479	0	576	38	5	
13	0	0	0	0	506	481	0	571	39	5	
14	0	0	0	0	509	481	0	579	39	4	
15	0	0	0	0	509	479	0	573	39	4	
0	0	0	0	0	512	475	0	574	39	4	
1	0	0	0	0	506	475	0	581	39	4	
2	0	0	0	0	509	481	0	571	39	4	
3	0	0	0	0	506	488	0	579	38	5	
4	0	0	0	0	507	495	0	575	38	5	
5	0	0	0	0	508	499	0	576	39	4	
6	0	0	0	0	508	504	0	579	39	4	
7	0	0	0	0	505	508	0	569	39	4	
8	0	0	0	0	513	511	0	576	39	4	
9	0	0	0	0	514	514	0	572	39	4	
10	0	0	0	0	504	515	0	574	39	4	
11	0	0	0	0	504	512	0	579	38	5	
12	0	0	0	0	506	507	0	575	38	5	
13	0	0	0	0	502	502	0	583	39	5	
14	0	0	0	0	513	500	0	575	39	4	
15	0	0	0	0	511	498	0	568	39	4	
0	0	0	0	0	508	496	0	556	39	4	
1	0	0	0	0	512	496	0	540	38	4	
2	0	0	0	0	513	496	0	527	39	4	
3	0	0	0	0	508	500	0	518	38	4	
4	0	0	0	0	505	504	0	515	38	5	
5	0	0	0	0	506	506	0	502	39	5	
6	0	0	0	0	504	507	0	498	39	4	
7	0	0	0	0	509	506	0	491	39	4	
8	0	0	0	0	504	508	0	487	39	4	
9	0	0	0	0	505	510	0	487	38	4	
10	0	0	0	0	511	511	0	489	39	4	
11	0	0	0	0	505	511	0	491	38	4	
12	0	0	0	0	506	513	0	492	38	5	
13	0	0	0	0	507	512	0	495	39	5	
14	0	0	0	0	511	510	0	503	39	4	
15	0	0	0	0	514	510	0	485	39	4	
0	0	0	0	0	501	512	0	483	39	4	
1	0	0	0	0	506	517	0	485	39	4	
2	0	0	0	0	507	519	0	486	39	4	
3	0	0	0	0	502	519	0	487	39	4	
4	0	0	0	0	510	516	0	490	38	5	
5	0	0	0	0	513	515	0	491	38	5	
6	0	0	0	0	504	514	0	487	38	4	
7	0	0	0	0	512	511	0	486	38	4	
8	0	0	0	0	512	508	0	485	39	4	
9	0	0	0	0	508	506	0	485	38	4	
10	0	0	0	0	506	503	0	489	39	4	
11	0	0	0	0	501	501	0	495	38	4	
12	0	0	0	0	510	500	0	520	38	4	
13	0	0	0	0	512	500	0	536	38	5	
14	0	0	0	0	505	503	0	546	38	5	
15	0	0	0	0	511	508	0	563	38	4	
0	0	0	0	0	513	510	0	564	39	4	
1	0	0	0	0	509	511	0	575	39	4	
2	0	0	0	0	500	512	0	579	39	4	
3	0	0	0	0	507	513	0	579	38	4	
4	0	0	0	0	505	512	0	590	38	4	
5	0	0	0	0	505	515	0	582	39	5	
6	0	0	0	0	513	518	0	587	38	4	
7	0	0	0	0	514	520	0	582	39	4	
8	0	0	0	0	504	520	0	573	39	4	
9	0	0	0	0	505	523	0	562	39	4	
10	0	0	0	0	505	523	0	546	39	4	
11	0	0	0	0	505	519	0	531	39	4	
12	0	0	0	0	501	516	0	520	38	4	
13	0	0	0	0	505	515	0	519	39	5	
14	0	0	0	0	513	516	0	504	38	4	
15	0	0	0	0	503	515	0	497	39	5	
0	0	0	0	0	508	512	0	494	39	4	
1	0	0	0	0	511	511	0	493	39	4	
2	0	0	0	0	514	513	0	492	39	4	
3	0	0	0	0	508	515	0	492	39	4	
4	0	0	0	0	508	513	0	493	38	4	
5	0	0	0	0	509	511	0	492	39	4	
6	0	0	0	0	509	511	0	489	39	5	
7	0	0	0	0	505	512	0	487	39	5	
8	0	0	0	0	504	511	0	486	39	4	
9	0	0	0	0	504	508	0	484	39	4	
10	0	0	0	0	508	507	0	483	38	4	
11	0	0	0	0	512	510	0	485	39	4	
12	0	0	0	0	508	510	0	487	38	4	
13	0	0	0	0	512	508	0	487	38	4	
14	0	0	0	0	506	509	0	483	38	5	
15	0	0	0	0	512	511	0	480	39	5	
0	0	0	0	0	505	513	0	477	39	4	
1	0	0	0	0	508	515	0	480	39	4	
2	0	0	0	0	507	514	0	483	39	4	
3	0	0	0	0	503	516	0	485	38	4	
4	0	0	0	0	512	520	0	486	38	4	
5	0	0	0	0	506	524	0	505	39	4	
6	0	0	0	0	510	526	0	523	39	5	
7	0	0	0	0	503	529	0	529	39	5	
8	0	0	0	0	515	532	0	550	39	4	
9	0	0	0	0	508	534	0	557	39	4	
10	0	0	0	0	510	535	0	566	39	4	
11	0	0	0	0	504	534	0	575	38	4	
12	0	0	0	0	508	535	0	568	38	4	
13	0	0	0	0	510	535	0	574	38	4	
14	0	0	0	0	505	534	0	566	39	4	
15	0	0	0	0	508	534	0	563	39	5	
0	0	0	0	0	511	534	0	566	39	4	
1	0	0	0	0	505	534	0	559	39	4	
2	0	0	0	0	507	533	0	549	39	4	
3	0	0	0	0	505	531	0	534	39	4	
4	0	0	0	0	510	526	0	519	38	4	
5	0	0	0	0	504	521	0	509	39	4	
6	0	0	0	0	509	517	0	513	39	4	
7	0	0	0	0	505	517	0	492	39	5	
8	0	0	0	0	503	517	0	487	39	4	
9	0	0	0	0	511	515	0	484	38	4	
10	0	0	0	0	508	514	0	484	39	4	
11	0	0	0	0	508	513	0	486	38	4	
12	0	0	0	0	508	512	0	487	38	4	
13	0	0	0	0	503	509	0	485	38	4	
14	0	0	0	0	511	504	0	484	38	4	
15	0	0	0	0	509	498	0	484	39	5	
0	0	0	0	0	504	493	0	480	39	4	
1	0	0	0	0	508	488	0	482	39	4	
2	0	0	0	0	506	485	0	484	39	4	
3	0	0	0	0	517	484	0	486	39	4	
4	0	0	0	0	504	484	0	487	38	4	
5	0	0	0	0	510	484	0	488	38	4	
6	0	0	0	0	503	490	0	483	39	4	
7	0	0	0	0	508	494	0	477	39	4	
8	0	0	0	0	507	492	0	476	39	5	
9	0	0	0	0	502	492	0	486	39	4	
10	0	0	0	0	507	495	0	477	39	4	
11	0	0	0	0	510	497	0	480	38	4	
12	0	0	0	0	509	497	0	482	38	4	
13	0	0	0	0	508	497	0	481	39	4	
14	0	0	0	0	507	497	0	492	39	4	
15	0	0	0	0	501	496	0	513	39	4	
0	0	0	0	0	511	497	0	520	39	5	
1	0	0	0	0	508	501	0	542	38	4	
2	0	0	0	0	506	507	0	555	39	4	
3	0	0	0	0	508	514	0	545	39	4	
4	0	0	0	0	505	516	0	531	38	4	
5	0	0	0	0	508	518	0	519	39	4	
6	0	0	0	0	508	521	0	527	39	4	
7	0	0	0	0	502	522	0	531	38	4	
8	0	0	0	0	504	519	0	536	39	5	
9	0	0	0	0	510	516	0	551	39	4	
10	0	0	0	0	503	514	0	551	39	4	
11	0	0	0	0	505	511	0	560	38	4	
12	0	0	0	0	512	508	0	563	38	4	
13	0	0	0	0	509	505	0	564	39	4	
14	0	0	0	0	503	501	0	569	39	4	
15	0	0	0	0	511	497	0	558	39	4	
0	0	0	0	0	512	495	0	562	39	4	
1	0	0	0	0	510	493	0	561	38	5	
2	0	0	0	0	510	495	0	555	39	4	
3	0	0	0	0	512	499	0	544	38	4	
4	0	0	0	0	504	499	0	529	38	4	
5	0	0	0	0	512	499	0	515	38	4	
6	0	0	0	0	504	497	0	503	38	4	
7	0	0	0	0	511	494	0	493	39	4	
8	0	0	0	0	502	489	0	486	39	4	
9	0	0	0	0	506	490	0	483	38	5	
10	0	0	0	0	511	492	0	479	38	4	
11	0	0	0	0	510	494	0	478	38	4	
12	0	0	0	0	505	494	0	479	38	4	
13	0	0	0	0	504	492	0	479	38	4	
14	0	0	0	0	500	489	0	476	38	4	
15	0	0	0	0	510	492	0	472	39	4	
0	0	0	0	0	507	496	0	469	39	4	
1	0	0	0	0	507	502	0	472	39	4	
2	0	0	0	0	514	505	0	477	38	4	
3	0	0	0	0	500	507	0	479	39	4	
4	0	0	0	0	512	505	0	480	38	4	
5	0	0	0	0	512	502	0	480	39	4	
6	0	0	0	0	509	498	0	478	39	4	
7	0	0	0	0	501	495	0	475	39	4	
8	0	0	0	0	506	492	0	473	39	4	
9	0	0	0	0	507	488	0	473	38	4	
10	0	0	0	0	509	487	0	475	38	5	
11	0	0	0	0	509	485	0	480	39	4	
12	0	0	0	0	503	485	0	478	38	4	
13	0	0	0	0	511	483	0	476	39	4	
14	0	0	0	0	508	479	0	472	39	4	
15	0	0	0	0	499	476	0	485	39	4	
0	0	0	0	0	506	479	0	507	39	4	
1	0	0	0	0	504	482	0	517	39	4	
2	0	0	0	0	511	487	0	538	38	4	
3	0	0	0	0	508	494	0	544	39	4	
4	0	0	0	0	513	497	0	552	38	4	
5	0	0	0	0	513	502	0	573	39	4	
6	0	0	0	0	510	511	0	549	39	4	
7	0	0	0	0	501	523	0	556	39	4	
8	0	0	0	0	511	536	0	550	39	4	
9	0	0	0	0	500	547	0	552	39	4	
10	0	0	0	0	507	555	0	559	39	4	
11	0	0	0	0	509	568	0	552	38	4	
12	0	0	0	0	510	589	0	545	38	4	
13	0	0	0	0	508	613	0	552	38	4	
14	0	0	0	0	512	639	0	550	38	4	
15	0	0	0	0	504	664	0	545	39	4	
0	0	0	0	0	503	685	0	535	39	4	
1	0	0	0	0	513	706	0	519	38	4	
2	0	0	0	0	510	725	0	508	39	4	
3	0	0	0	0	508	746	0	498	38	4	
4	0	0	0	0	512	769	0	489	38	4	
5	0	0	0	0	512	790	0	485	38	4	
6	0	0	0	0	502	805	0	483	39	4	
7	0	0	0	0	505	817	0	479	39	4	
8	0	0	0	0	508	825	0	476	39	4	
9	0	0	0	0	504	827	0	473	39	4	
10	0	0	0	0	503	822	0	473	38	4	
11	0	0	0	0	514	812	0	475	38	4	
12	0	0	0	0	510	798	0	476	38	4	
13	0	0	0	0	508	782	0	477	38	4	
14	0	0	0	0	511	766	0	477	39	4	
15	0	0	0	0	510	746	0	475	39	4	
0	0	0	0	0	508	724	0	475	39	4	
1	0	0	0	0	501	697	0	478	39	4	
2	0	0	0	0	508	672	0	478	39	4	
3	0	0	0	0	504	650	0	479	39	4	
4	0	0	0	0	508	624	0	481	38	4	
5	0	0	0	0	504	593	0	482	39	4	
6	0	0	0	0	505	560	0	479	39	4	
7	0	0	0	0	504	530	0	476	39	4	
8	0	0	0	0	504	504	0	474	39	4	
9	0	0	0	0	510	484	0	475	38	4	
10	0	0	0	0	506	465	0	480	39	4	
11	0	0	0	0	512	443	0	484	38	4	
12	0	0	0	0	509	425	0	507	38	4	
13	0	0	0	0	508	410	0	543	39	4	
14	0	0	0	0	508	401	0	534	39	4	
15	0	0	0	0	507	392	0	554	39	4	
0	0	0	0	0	512	388	0	558	39	4	
1	0	0	0	0	508	385	0	564	39	4	
2	0	0	0	0	500	381	0	573	39	4	
3	0	0	0	0	513	375	0	568	39	4	
4	0	0	0	0	515	368	0	578	38	4	
5	0	0	0	0	507	365	0	573	39	4	
6	0	0	0	0	509	366	0	576	39	4	
7	0	0	0	0	504	372	0	577	39	4	
8	0	0	0	0	508	378	0	567	39	4	
9	0	0	0	0	503	385	0	557	39	4	
10	0	0	0	0	511	390	0	540	39	4	
11	0	0	0	0	512	395	0	524	39	4	
12	0	0	0	0	510	402	0	512	38	4	
13	0	0	0	0	502	408	0	500	39	4	
14	0	0	0	0	504	411	0	494	39	4	
15	0	0	0	0	508	414	0	489	39	4	
0	0	0	0	0	509	420	0	497	39	4	
1	0	0	0	0	511	428	0	481	39	4	
2	0	0	0	0	504	435	0	480	39	4	
3	0	0	0	0	504	439	0	478	38	4	
4	0	0	0	0	511	445	0	478	38	4	
5	0	0	0	0	498	451	0	478	38	4	
6	0	0	0	0	508	459	0	479	39	4	
7	0	0	0	0	512	466	0	476	39	4	
8	0	0	0	0	506	466	0	473	39	4	
9	0	0	0	0	511	463	0	475	39	4	
10	0	0	0	0	501	461	0	472	39	4	
11	0	0	0	0	508	460	0	474	39	4	
12	0	0	0	0	512	458	0	477	38	4	
13	0	0	0	0	512	455	0	479	39	4	
14	0	0	0	0	514	452	0	476	38	4	
15	0	0	0	0	502	449	0	473	38	4	
0	0	0	0	0	506	450	0	471	39	4	
1	0	0	0	0	510	455	0	473	38	4	
2	0	0	0	0	509	462	0	478	39	4	
3	0	0	0	0	512	470	0	482	38	4	
4	0	0	0	0	504	476	0	481	38	4	
5	0	0	0	0	512	481	0	482	38	4	
6	0	0	0	0	504	484	0	479	38	4	
7	0	0	0	0	516	487	0	475	39	4	
8	0	0	0	0	507	492	0	473	39	4	
9	0	0	0	0	501	499	0	474	39	4	
10	0	0	0	0	504	506	0	476	39	4	
11	0	0	0	0	505	511	0	478	38	4	
12	0	0	0	0	505	514	0	480	38	4	
13	0	0	0	0	510	515	0	484	39	4	
14	0	0	0	0	509	513	0	481	39	4	
15	0	0	0	0	509	511	0	476	39	4	
0	0	0	0	0	512	510	0	474	39	4	
1	0	0	0	0	502	510	0	477	39	4	
2	0	0	0	0	507	508	0	478	39	4	
3	0	0	0	0	508	506	0	480	38	4	
4	0	0	0	0	500	505	0	481	38	4	
5	0	0	0	0	506	503	0	482	39	4	
6	0	0	0	0	501	501	0	480	38	4	
7	0	0	0	0	511	498	0	475	39	4	
8	0	0	0	0	507	495	0	474	39	4	
9	0	0	0	0	511	491	0	492	39	4	
10	0	0	0	0	504	487	0	478	38	4	
11	0	0	0	0	503	484	0	481	38	4	
12	0	0	0	0	509	480	0	483	38	4	
13	0	0	0	0	506	478	0	481	38	4	
14	0	0	0	0	510	480	0	480	38	4	
15	0	0	0	0	510	485	0	475	39	4	
0	0	0	0	0	506	493	0	474	39	4	
1	0	0	0	0	505	500	0	477	39	4	
2	0	0	0	0	511	500	0	495	39	4	
3	0	0	0	0	509	500	0	519	39	4	
4	0	0	0	0	512	499	0	530	38	4	
5	0	0	0	0	507	500	0	550	39	4	
6	0	0	0	0	517	500	0	550	38	4	
7	0	0	0	0	508	502	0	552	39	4	
8	0	0	0	0	504	504	0	559	39	4	
9	0	0	0	0	506	508	0	555	39	4	
10	0	0	0	0	504	510	0	567	39	4	
11	0	0	0	0	513	511	0	562	39	4	
12	0	0	0	0	510	512	0	562	38	4	
13	0	0	0	0	504	513	0	563	39	4	
14	0	0	0	0	508	512	0	551	38	4	
15	0	0	0	0	503	510	0	556	39	4	
0	0	0	0	0	505	509	0	549	39	4	
1	0	0	0	0	512	508	0	550	38	4	
2	0	0	0	0	509	506	0	557	39	4	
3	0	0	0	0	504	504	0	552	39	4	
4	0	0	0	0	507	502	0	565	38	4	
5	0	0	0	0	510	497	0	553	39	4	
6	0	0	0	0	512	493	0	552	39	4	
7	0	0	0	0	506	491	0	554	39	4	
8	0	0	0	0	513	489	0	544	39	4	
9	0	0	0	0	504	492	0	552	39	4	
10	0	0	0	0	505	495	0	546	39	4	
11	0	0	0	0	503	500	0	537	38	4	
12	0	0	0	0	510	504	0	535	38	4	
13	0	0	0	0	508	509	0	544	39	4	
14	0	0	0	0	506	513	0	534	39	4	
15	0	0	0	0	508	515	0	525	39	4	
0	0	0	0	0	512	517	0	511	39	4	
1	0	0	0	0	508	515	0	496	39	4	
2	0	0	0	0	506	512	0	485	39	4	
3	0	0	0	0	506	509	0	476	39	4	
4	0	0	0	0	508	504	0	472	38	4	
5	0	0	0	0	509	504	0	469	38	4	
6	0	0	0	0	504	504	0	466	39	4	
7	0	0	0	0	511	502	0	460	39	4	
8	0	0	0	0	507	501	0	460	39	4	
9	0	0	0	0	504	502	0	460	38	4	
10	0	0	0	0	511	497	0	460	38	4	
11	0	0	0	0	504	493	0	462	38	4	
12	0	0	0	0	511	491	0	461	38	4	
13	0	0	0	0	505	493	0	462	39	4	
14	0	0	0	0	510	496	0	457	39	4	
15	0	0	0	0	506	504	0	455	39	4	
0	0	0	0	0	507	510	0	454	39	4	
1	0	0	0	0	510	515	0	454	39	4	
2	0	0	0	0	493	519	0	457	39	4	
3	0	0	0	0	506	523	0	459	39	4	
4	0	0	0	0	505	524	0	460	38	4	
5	0	0	0	0	510	528	0	461	39	4	
6	0	0	0	0	514	530	0	459	39	4	
7	0	0	0	0	513	526	0	456	39	4	
8	0	0	0	0	509	521	0	454	39	4	
9	0	0	0	0	507	522	0	459	39	4	
10	0	0	0	0	504	525	0	459	39	4	
11	0	0	0	0	511	525	0	462	38	4	
12	0	0	0	0	509	526	0	464	38	4	
13	0	0	0	0	506	529	0	462	39	4	
14	0	0	0	0	512	532	0	477	39	4	
15	0	0	0	0	508	536	0	496	39	4	
0	0	0	0	0	507	538	0	504	39	4	
1	0	0	0	0	504	536	0	523	39	4	
2	0	0	0	0	505	535	0	527	38	4	
3	0	0	0	0	505	534	0	531	38	4	
4	0	0	0	0	508	535	0	540	38	4	
5	0	0	0	0	509	537	0	533	38	4	
6	0	0	0	0	509	541	0	541	39	4	
7	0	0	0	0	510	542	0	534	39	4	
8	0	0	0	0	509	542	0	533	39	4	
9	0	0	0	0	511	543	0	538	38	4	
10	0	0	0	0	515	543	0	531	38	4	
11	0	0	0	0	509	543	0	523	38	4	
12	0	0	0	0	505	545	0	507	38	4	
13	0	0	0	0	503	547	0	495	38	4	
14	0	0	0	0	498	547	0	484	39	4	
15	0	0	0	0	504	545	0	479	39	4	
0	0	0	0	0	505	543	0	464	39	4	
1	0	0	0	0	508	542	0	458	39	4	
2	0	0	0	0	497	538	0	455	39	4	
3	0	0	0	0	509	535	0	455	39	4	
4	0	0	0	0	505	534	0	455	38	4	
5	0	0	0	0	506	535	0	455	39	4	
6	0	0	0	0	514	537	0	451	38	4	
7	0	0	0	0	508	540	0	448	39	4	
8	0	0	0	0	512	542	0	448	39	4	
9	0	0	0	0	510	543	0	453	38	4	
10	0	0	0	0	507	543	0	455	39	4	
11	0	0	0	0	496	540	0	456	39	4	
12	0	0	0	0	510	539	0	459	38	4	
13	0	0	0	0	511	540	0	460	39	4	
14	0	0	0	0	506	544	0	460	39	4	
15	0	0	0	0	510	546	0	458	39	4	
0	0	0	0	0	504	544	0	456	39	4	
1	0	0	0	0	513	541	0	457	39	4	
2	0	0	0	0	505	540	0	461	39	4	
3	0	0	0	0	515	537	0	465	38	4	
4	0	0	0	0	511	532	0	465	38	4	
5	0	0	0	0	512	527	0	464	39	4	
6	0	0	0	0	504	528	0	463	39	4	
7	0	0	0	0	508	534	0	470	39	4	
8	0	0	0	0	502	540	0	496	39	4	
9	0	0	0	0	508	544	0	507	39	4	
10	0	0	0	0	513	550	0	526	39	4	
11	0	0	0	0	511	554	0	534	39	4	
12	0	0	0	0	513	558	0	539	38	4	
13	0	0	0	0	505	560	0	558	39	4	
14	0	0	0	0	504	562	0	537	38	4	
15	0	0	0	0	505	563	0	543	39	4	
0	0	0	0	0	504	561	0	543	39	4	
1	0	0	0	0	512	559	0	541	39	4	
2	0	0	0	0	507	558	0	551	39	4	
3	0	0	0	0	506	559	0	544	39	4	
4	0	0	0	0	510	558	0	537	38	4	
5	0	0	0	0	504	553	0	538	38	4	
6	0	0	0	0	515	550	0	542	38	4	
7	0	0	0	0	505	546	0	534	39	4	
8	0	0	0	0	505	551	0	534	39	4	
9	0	0	0	0	514	562	0	510	39	4	
10	0	0	0	0	509	572	0	497	38	4	
11	0	0	0	0	511	580	0	488	39	4	
12	0	0	0	0	510	588	0	482	38	4	
13	0	0	0	0	501	594	0	478	39	4	
14	0	0	0	0	509	595	0	473	39	4	
15	0	0	0	0	503	598	0	468	39	4	
0	0	0	0	0	501	599	0	464	39	4	
1	0	0	0	0	501	599	0	462	39	4	
2	0	0	0	0	511	598	0	467	39	4	
3	0	0	0	0	510	596	0	471	38	4	
4	0	0	0	0	515	592	0	467	38	4	
5	0	0	0	0	512	590	0	470	39	4	
6	0	0	0	0	505	587	0	467	39	4	
7	0	0	0	0	505	585	0	466	39	4	
8	0	0	0	0	506	583	0	464	39	4	
9	0	0	0	0	505	582	0	467	39	4	
10	0	0	0	0	517	579	0	469	38	4	
11	0	0	0	0	513	574	0	472	38	4	
12	0	0	0	0	508	568	0	473	38	4	
13	0	0	0	0	508	565	0	473	38	4	
14	0	0	0	0	502	561	0	488	39	4	
15	0	0	0	0	504	557	0	508	39	4	
0	0	0	0	0	500	554	0	531	39	4	
1	0	0	0	0	511	556	0	537	39	4	
2	0	0	0	0	512	559	0	538	39	4	
3	0	0	0	0	506	561	0	544	38	4	
4	0	0	0	0	507	563	0	552	38	4	
5	0	0	0	0	510	563	0	547	39	4	
6	0	0	0	0	509	562	0	555	38	4	
7	0	0	0	0	510	562	0	546	39	4	
8	0	0	0	0	508	563	0	537	39	4	
9	0	0	0	0	502	564	0	526	39	4	
10	0	0	0	0	507	565	0	519	39	4	
11	0	0	0	0	499	563	0	498	38	4	
12	0	0	0	0	505	559	0	489	38	4	
13	0	0	0	0	510	557	0	483	39	4	
14	0	0	0	0	508	554	0	480	39	4	
15	0	0	0	0	515	551	0	479	39	4	
0	0	0	0	0	514	552	0	478	39	4	
1	0	0	0	0	505	553	0	478	39	4	
2	0	0	0	0	502	553	0	479	38	4	
3	0	0	0	0	512	555	0	479	38	4	
4	0	0	0	0	503	554	0	479	38	4	
5	0	0	0	0	507	551	0	480	38	4	
6	0	0	0	0	504	547	0	477	38	4	
7	0	0	0	0	508	544	0	470	39	4	
8	0	0	0	0	510	543	0	469	39	4	
9	0	0	0	0	511	540	0	472	39	4	
10	0	0	0	0	500	532	0	475	38	4	
11	0	0	0	0	508	524	0	478	38	4	
12	0	0	0	0	513	517	0	479	38	4	
13	0	0	0	0	514	513	0	481	39	4	
14	0	0	0	0	505	508	0	481	38	4	
15	0	0	0	0	507	500	0	477	39	4	
0	0	0	0	0	508	495	0	476	39	4	
1	0	0	0	0	509	491	0	476	38	4	
2	0	0	0	0	502	489	0	479	39	4	
3	0	0	0	0	510	490	0	480	38	4	
4	0	0	0	0	509	493	0	483	38	4	
5	0	0	0	0	511	493	0	504	38	4	
6	0	0	0	0	511	494	0	517	38	4	
7	0	0	0	0	507	496	0	527	39	4	
8	0	0	0	0	504	497	0	546	39	4	
9	0	0	0	0	508	497	0	547	39	4	
10	0	0	0	0	499	493	0	558	38	4	
11	0	0	0	0	515	486	0	560	39	4	
12	0	0	0	0	505	481	0	560	38	4	
13	0	0	0	0	513	478	0	569	38	4	
14	0	0	0	0	505	472	0	560	38	4	
15	0	0	0	0	506	468	0	560	39	4	
0	0	0	0	0	507	465	0	559	39	4	
1	0	0	0	0	508	462	0	553	38	4	
2	0	0	0	0	513	457	0	543	38	4	
3	0	0	0	0	512	453	0	528	39	4	
4	0	0	0	0	498	451	0	513	38	4	
5	0	0	0	0	506	450	0	500	38	4	
6	0	0	0	0	504	451	0	491	39	4	
7	0	0	0	0	509	451	0	491	38	4	
8	0	0	0	0	509	451	0	515	39	4	
9	0	0	0	0	499	453	0	525	38	4	
10	0	0	0	0	504	455	0	529	38	4	
11	0	0	0	0	514	457	0	536	38	4	
12	0	0	0	0	510	457	0	553	38	4	
13	0	0	0	0	512	459	0	550	39	4	
14	0	0	0	0	511	461	0	546	39	4	
15	0	0	0	0	509	462	0	532	39	4	
0	0	0	0	0	508	460	0	517	39	4	
1	0	0	0	0	501	451	0	506	38	4	
2	0	0	0	0	508	447	0	497	38	4	
3	0	0	0	0	501	445	0	492	39	4	
4	0	0	0	0	511	442	0	490	38	4	
5	0	0	0	0	511	437	0	485	39	4	
6	0	0	0	0	506	432	0	483	39	4	
7	0	0	0	0	510	428	0	477	39	4	
8	0	0	0	0	512	430	0	473	39	4	
9	0	0	0	0	507	435	0	472	38	4	
10	0	0	0	0	506	437	0	473	39	4	
11	0	0	0	0	508	433	0	474	39	4	
12	0	0	0	0	505	426	0	475	38	4	
13	0	0	0	0	502	420	0	478	38	4	
14	0	0	0	0	505	415	0	490	39	4	
15	0	0	0	0	513	412	0	470	39	4	
0	0	0	0	0	512	415	0	468	39	4	
1	0	0	0	0	509	420	0	469	39	4	
2	0	0	0	0	506	423	0	470	39	4	
3	0	0	0	0	506	422	0	472	38	4	
4	0	0	0	0	505	420	0	475	38	4	
5	0	0	0	0	504	421	0	476	39	4	
6	0	0	0	0	507	423	0	475	38	4	
7	0	0	0	0	508	422	0	471	39	4	
8	0	0	0	0	510	424	0	471	39	4	
9	0	0	0	0	504	428	0	471	38	4	
10	0	0	0	0	514	430	0	479	38	4	
11	0	0	0	0	515	436	0	509	38	4	
12	0	0	0	0	508	440	0	520	38	4	
13	0	0	0	0	504	442	0	533	39	4	
14	0	0	0	0	508	443	0	545	39	4	
15	0	0	0	0	508	442	0	542	39	4	
0	0	0	0	0	506	441	0	553	39	4	
1	0	0	0	0	506	440	0	551	39	4	
2	0	0	0	0	510	438	0	556	39	4	
3	0	0	0	0	500	435	0	565	39	4	
4	0	0	0	0	505	437	0	554	38	4	
5	0	0	0	0	515	438	0	561	38	4	
6	0	0	0	0	508	440	0	552	39	4	
7	0	0	0	0	505	442	0	542	39	4	
8	0	0	0	0	512	443	0	528	39	4	
9	0	0	0	0	511	443	0	513	38	4	
10	0	0	0	0	502	440	0	501	39	4	
11	0	0	0	0	505	436	0	493	38	4	
12	0	0	0	0	508	432	0	485	38	4	
13	0	0	0	0	507	428	0	476	39	4	
14	0	0	0	0	507	426	0	472	39	4	
15	0	0	0	0	508	423	0	467	39	4	
0	0	0	0	0	507	417	0	463	39	4	
1	0	0	0	0	510	413	0	462	39	4	
2	0	0	0	0	509	411	0	462	39	4	
3	0	0	0	0	504	411	0	463	38	4	
4	0	0	0	0	507	413	0	468	38	4	
5	0	0	0	0	508	416	0	480	38	4	
6	0	0	0	0	514	423	0	463	39	4	
7	0	0	0	0	503	431	0	460	39	4	
8	0	0	0	0	510	437	0	457	39	4	
9	0	0	0	0	505	443	0	459	38	4	
10	0	0	0	0	508	446	0	461	38	4	
11	0	0	0	0	515	448	0	461	38	4	
12	0	0	0	0	506	448	0	463	38	4	
13	0	0	0	0	510	448	0	464	38	4	
14	0	0	0	0	508	451	0	460	38	4	
15	0	0	0	0	508	456	0	456	39	4	
0	0	0	0	0	508	461	0	454	39	4	
1	0	0	0	0	507	462	0	455	39	4	
2	0	0	0	0	505	460	0	457	38	4	
3	0	0	0	0	504	460	0	460	39	4	
4	0	0	0	0	506	460	0	461	38	4	
5	0	0	0	0	506	463	0	462	38	4	
6	0	0	0	0	505	463	0	464	39	4	
7	0	0	0	0	510	461	0	459	39	4	
8	0	0	0	0	506	458	0	460	39	4	
9	0	0	0	0	509	457	0	462	38	4	
10	0	0	0	0	504	455	0	465	38	4	
11	0	0	0	0	508	456	0	467	39	4	
12	0	0	0	0	508	460	0	469	38	4	
13	0	0	0	0	505	466	0	469	39	4	
14	0	0	0	0	505	469	0	465	38	4	
15	0	0	0	0	505	475	0	461	39	4	
0	0	0	0	0	506	479	0	461	39	4	
1	0	0	0	0	509	483	0	470	38	4	
2	0	0	0	0	508	487	0	464	38	4	
3	0	0	0	0	503	490	0	465	39	4	
4	0	0	0	0	511	486	0	467	38	4	
5	0	0	0	0	505	485	0	469	39	4	
6	0	0	0	0	509	486	0	467	39	4	
7	0	0	0	0	510	486	0	467	39	4	
8	0	0	0	0	511	486	0	465	39	4	
9	0	0	0	0	508	485	0	466	39	4	
10	0	0	0	0	513	484	0	470	39	4	
11	0	0	0	0	508	482	0	475	38	4	
12	0	0	0	0	508	481	0	494	38	4	
13	0	0	0	0	507	477	0	500	38	4	
14	0	0	0	0	502	473	0	512	38	4	
15	0	0	0	0	512	467	0	521	38	4	
0	0	0	0	0	502	464	0	540	39	4	
1	0	0	0	0	512	462	0	541	39	4	
2	0	0	0	0	507	462	0	552	38	4	
3	0	0	0	0	507	462	0	554	39	4	
4	0	0	0	0	505	463	0	552	38	4	
5	0	0	0	0	513	465	0	560	38	4	
6	0	0	0	0	510	467	0	551	38	4	
7	0	0	0	0	510	470	0	557	39	4	
8	0	0	0	0	508	470	0	552	39	4	
9	0	0	0	0	508	471	0	548	39	4	
10	0	0	0	0	508	475	0	556	39	4	
11	0	0	0	0	507	476	0	550	39	4	
12	0	0	0	0	509	477	0	556	38	4	
13	0	0	0	0	507	480	0	555	38	4	
14	0	0	0	0	510	486	0	548	39	4	
15	0	0	0	0	510	492	0	555	39	4	
0	0	0	0	0	505	496	0	548	39	4	
1	0	0	0	0	508	498	0	552	38	4	
2	0	0	0	0	505	499	0	552	39	4	
3	0	0	0	0	500	499	0	547	39	4	
4	0	0	0	0	510	500	0	543	38	4	
5	0	0	0	0	511	503	0	553	39	4	
6	0	0	0	0	507	506	0	549	39	4	
7	0	0	0	0	512	503	0	543	39	4	
8	0	0	0	0	506	498	0	534	39	4	
9	0	0	0	0	502	494	0	519	39	4	
10	0	0	0	0	510	487	0	508	39	4	
11	0	0	0	0	512	483	0	498	39	4	
12	0	0	0	0	503	477	0	491	38	4	
13	0	0	0	0	504	471	0	486	39	4	
14	0	0	0	0	507	464	0	483	39	4	
15	0	0	0	0	503	461	0	477	39	4	
0	0	0	0	0	512	458	0	473	39	4	
1	0	0	0	0	512	457	0	475	39	4	
2	0	0	0	0	510	460	0	478	39	4	
3	0	0	0	0	506	464	0	487	38	4	
4	0	0	0	0	504	467	0	481	38	4	
5	0	0	0	0	509	469	0	481	38	4	
6	0	0	0	0	510	471	0	480	38	4	
7	0	0	0	0	504	474	0	477	39	4	
8	0	0	0	0	503	478	0	474	39	4	
9	0	0	0	0	504	483	0	479	39	4	
10	0	0	0	0	509	490	0	481	38	4	
11	0	0	0	0	511	497	0	483	38	4	
12	0	0	0	0	510	504	0	488	38	4	
13	0	0	0	0	506	507	0	488	39	4	
14	0	0	0	0	505	506	0	486	38	4	
15	0	0	0	0	505	503	0	482	39	4	
0	0	0	0	0	505	503	0	481	39	4	
1	0	0	0	0	508	504	0	482	39	4	
2	0	0	0	0	510	507	0	484	38	4	
3	0	0	0	0	511	509	0	489	38	4	
4	0	0	0	0	505	506	0	514	38	4	
5	0	0	0	0	505	504	0	531	38	4	
6	0	0	0	0	510	504	0	539	38	4	
7	0	0	0	0	500	503	0	555	39	4	
8	0	0	0	0	509	503	0	556	39	4	
9	0	0	0	0	516	504	0	568	38	4	
10	0	0	0	0	503	505	0	569	38	4	
11	0	0	0	0	510	504	0	569	38	4	
12	0	0	0	0	513	500	0	578	38	4	
13	0	0	0	0	500	499	0	571	39	4	
14	0	0	0	0	505	499	0	575	39	4	
15	0	0	0	0	509	500	0	570	39	4	
0	0	0	0	0	508	500	0	563	39	4	
1	0	0	0	0	509	501	0	553	39	4	
2	0	0	0	0	507	502	0	551	39	4	
3	0	0	0	0	513	503	0	524	38	4	
4	0	0	0	0	502	502	0	515	38	4	
5	0	0	0	0	505	505	0	508	39	4	
6	0	0	0	0	503	506	0	504	39	4	
7	0	0	0	0	509	503	0	498	39	4	
8	0	0	0	0	505	497	0	495	39	4	
9	0	0	0	0	505	496	0	493	38	4	
10	0	0	0	0	510	496	0	493	39	4	
11	0	0	0	0	505	496	0	496	39	4	
12	0	0	0	0	512	492	0	499	38	4	
13	0	0	0	0	508	487	0	495	38	4	
14	0	0	0	0	503	484	0	493	38	4	
15	0	0	0	0	505	484	0	490	39	4	
0	0	0	0	0	507	486	0	488	39	4	
1	0	0	0	0	512	489	0	489	38	4	
2	0	0	0	0	508	488	0	491	38	4	
3	0	0	0	0	500	487	0	493	39	4	
4	0	0	0	0	507	487	0	497	38	4	
5	0	0	0	0	502	487	0	502	39	4	
6	0	0	0	0	508	487	0	502	39	4	
7	0	0	0	0	509	493	0	494	39	4	
8	0	0	0	0	510	498	0	492	39	4	
9	0	0	0	0	501	500	0	494	38	4	
10	0	0	0	0	504	504	0	496	39	4	
11	0	0	0	0	512	505	0	498	38	4	
12	0	0	0	0	517	506	0	500	38	4	
13	0	0	0	0	501	507	0	517	39	4	
14	0	0	0	0	511	508	0	535	39	4	
15	0	0	0	0	511	510	0	540	39	4	
0	0	0	0	0	513	510	0	560	39	4	
1	0	0	0	0	512	510	0	564	39	4	
2	0	0	0	0	504	510	0	571	39	4	
3	0	0	0	0	502	508	0	581	39	4	
4	0	0	0	0	500	503	0	575	38	4	
5	0	0	0	0	507	500	0	583	39	4	
6	0	0	0	0	508	498	0	577	39	4	
7	0	0	0	0	508	496	0	576	39	4	
8	0	0	0	0	507	494	0	579	39	4	
9	0	0	0	0	506	488	0	572	39	4	
10	0	0	0	0	504	484	0	563	39	4	
11	0	0	0	0	510	486	0	550	38	4	
12	0	0	0	0	509	490	0	534	38	4	
13	0	0	0	0	505	493	0	522	39	4	
14	0	0	0	0	515	495	0	518	38	4	
15	0	0	0	0	514	495	0	534	39	4	
0	0	0	0	0	505	497	0	539	39	4	
1	0	0	0	0	497	499	0	544	39	4	
2	0	0	0	0	508	500	0	540	39	4	
3	0	0	0	0	506	502	0	532	39	4	
4	0	0	0	0	507	504	0	523	38	4	
5	0	0	0	0	508	507	0	514	38	4	
6	0	0	0	0	502	510	0	506	38	4	
7	0	0	0	0	510	511	0	501	39	4	
8	0	0	0	0	509	514	0	494	39	4	
9	0	0	0	0	504	517	0	492	38	4	
10	0	0	0	0	510	519	0	492	39	4	
11	0	0	0	0	499	518	0	493	38	4	
12	0	0	0	0	509	515	0	496	38	4	
13	0	0	0	0	510	515	0	497	38	4	
14	0	0	0	0	511	517	0	494	39	4	
15	0	0	0	0	508	519	0	493	38	4	
0	0	0	0	0	507	522	0	491	39	4	
1	0	0	0	0	512	525	0	492	39	4	
2	0	0	0	0	503	531	0	494	39	4	
3	0	0	0	0	505	536	0	496	39	4	
4	0	0	0	0	510	536	0	498	38	4	
5	0	0	0	0	507	535	0	498	39	4	
6	0	0	0	0	508	532	0	496	39	4	
7	0	0	0	0	515	529	0	493	39	4	
8	0	0	0	0	505	527	0	496	39	4	
9	0	0	0	0	504	526	0	497	39	4	
10	0	0	0	0	512	527	0	496	38	4	
11	0	0	0	0	510	529	0	497	39	4	
12	0	0	0	0	502	531	0	497	38	4	
13	0	0	0	0	504	534	0	496	39	4	
14	0	0	0	0	509	534	0	515	39	4	
15	0	0	0	0	510	533	0	526	39	4	
0	0	0	0	0	508	533	0	536	39	4	
1	0	0	0	0	506	535	0	558	38	4	
2	0	0	0	0	508	535	0	560	39	4	
3	0	0	0	0	508	533	0	570	38	4	
4	0	0	0	0	509	530	0	574	38	4	
5	0	0	0	0	509	528	0	573	39	4	
6	0	0	0	0	510	525	0	579	39	4	
7	0	0	0	0	505	524	0	568	39	4	
8	0	0	0	0	507	520	0	570	39	4	
9	0	0	0	0	504	515	0	569	38	4	
10	0	0	0	0	504	510	0	565	39	4	
11	0	0	0	0	508	507	0	568	38	4	
12	0	0	0	0	507	505	0	537	38	4	
13	0	0	0	0	508	503	0	523	38	4	
14	0	0	0	0	504	501	0	512	39	4	
15	0	0	0	0	510	500	0	502	39	4	
0	0	0	0	0	508	498	0	494	39	4	
1	0	0	0	0	514	496	0	490	38	4	
2	0	0	0	0	508	495	0	489	39	4	
3	0	0	0	0	501	492	0	486	39	4	
4	0	0	0	0	508	490	0	485	38	4	
5	0	0	0	0	504	490	0	484	38	4	
6	0	0	0	0	505	487	0	480	39	4	
7	0	0	0	0	508	485	0	475	39	4	
8	0	0	0	0	503	487	0	474	39	4	
9	0	0	0	0	504	491	0	478	39	4	
10	0	0	0	0	505	493	0	478	39	4	
11	0	0	0	0	513	493	0	482	39	4	
12	0	0	0	0	511	492	0	483	38	4	
13	0	0	0	0	503	487	0	483	39	4	
14	0	0	0	0	505	484	0	484	39	4	
15	0	0	0	0	515	484	0	481	39	4	
0	0	0	0	0	504	486	0	481	39	4	
1	0	0	0	0	507	493	0	484	38	4	
2	0	0	0	0	515	502	0	482	38	4	
3	0	0	0	0	508	507	0	484	38	4	
4	0	0	0	0	505	510	0	485	38	4	
5	0	0	0	0	508	513	0	484	39	4	
6	0	0	0	0	508	514	0	480	39	4	
7	0	0	0	0	508	513	0	492	39	4	
8	0	0	0	0	511	510	0	513	39	4	
9	0	0	0	0	508	507	0	524	39	4	
10	0	0	0	0	509	506	0	545	39	4	
11	0	0	0	0	507	506	0	549	39	4	
12	0	0	0	0	503	504	0	553	38	4	
13	0	0	0	0	506	498	0	560	39	4	
14	0	0	0	0	509	491	0	551	39	4	
15	0	0	0	0	508	487	0	556	39	4	
0	0	0	0	0	511	484	0	549	39	4	
1	0	0	0	0	509	481	0	549	39	4	
2	0	0	0	0	505	481	0	553	38	4	
3	0	0	0	0	511	481	0	549	38	4	
4	0	0	0	0	508	488	0	545	38	4	
5	0	0	0	0	510	497	0	550	39	4	
6	0	0	0	0	509	503	0	550	38	4	
7	0	0	0	0	510	504	0	544	39	4	
8	0	0	0	0	507	503	0	536	39	4	
9	0	0	0	0	501	504	0	523	38	4	
10	0	0	0	0	507	505	0	511	38	4	
11	0	0	0	0	513	510	0	502	38	4	
12	0	0	0	0	508	517	0	494	38	4	
13	0	0	0	0	504	522	0	491	39	4	
14	0	0	0	0	510	523	0	486	38	4	
15	0	0	0	0	513	521	0	480	38	4	
0	0	0	0	0	503	519	0	476	39	4	
1	0	0	0	0	504	520	0	475	38	4	
2	0	0	0	0	511	520	0	476	38	4	
3	0	0	0	0	510	519	0	479	38	4	
4	0	0	0	0	504	514	0	480	38	4	
5	0	0	0	0	499	509	0	479	39	4	
6	0	0	0	0	510	504	0	476	39	4	
7	0	0	0	0	507	501	0	475	39	4	
8	0	0	0	0	516	499	0	489	39	4	
9	0	0	0	0	507	496	0	475	39	4	
10	0	0	0	0	510	492	0	476	38	4	
11	0	0	0	0	511	490	0	478	39	4	
12	0	0	0	0	500	490	0	480	38	4	
13	0	0	0	0	505	491	0	480	39	4	
14	0	0	0	0	505	488	0	477	38	4	
15	0	0	0	0	505	488	0	474	39	4	
0	0	0	0	0	500	491	0	471	39	4	
1	0	0	0	0	509	495	0	473	39	4	
2	0	0	0	0	514	495	0	477	38	4	
3	0	0	0	0	510	496	0	477	38	4	
4	0	0	0	0	506	495	0	497	38	4	
5	0	0	0	0	504	495	0	519	39	4	
6	0	0	0	0	503	494	0	526	38	4	
7	0	0	0	0	509	491	0	545	39	4	
8	0	0	0	0	511	488	0	549	39	4	
9	0	0	0	0	507	485	0	556	39	4	
10	0	0	0	0	511	485	0	564	39	4	
11	0	0	0	0	510	484	0	559	38	4	
12	0	0	0	0	508	482	0	569	38	4	
13	0	0	0	0	508	482	0	565	39	4	
14	0	0	0	0	503	484	0	563	38	4	
15	0	0	0	0	505	487	0	565	39	4	
0	0	0	0	0	512	491	0	557	39	4	
1	0	0	0	0	510	492	0	548	38	4	
2	0	0	0	0	509	493	0	534	38	4	
3	0	0	0	0	507	498	0	517	38	4	
4	0	0	0	0	509	507	0	505	38	4	
5	0	0	0	0	509	519	0	498	39	4	
6	0	0	0	0	508	535	0	498	39	4	
7	0	0	0	0	510	552	0	515	39	4	
8	0	0	0	0	506	568	0	521	39	4	
9	0	0	0	0	507	583	0	528	39	4	
10	0	0	0	0	508	603	0	527	39	4	
11	0	0	0	0	509	625	0	520	39	4	
12	0	0	0	0	504	648	0	512	38	4	
13	0	0	0	0	507	671	0	504	39	4	
14	0	0	0	0	510	695	0	496	39	4	
15	0	0	0	0	508	716	0	492	39	4	
0	0	0	0	0	506	738	0	491	39	4	
1	0	0	0	0	508	758	0	488	39	4	
2	0	0	0	0	509	771	0	487	39	4	
3	0	0	0	0	507	785	0	487	39	4	
4	0	0	0	0	506	797	0	489	38	4	
5	0	0	0	0	502	806	0	486	38	4	
6	0	0	0	0	509	808	0	484	38	4	
7	0	0	0	0	510	803	0	480	39	4	
8	0	0	0	0	514	796	0	478	39	4	
9	0	0	0	0	506	787	0	481	39	4	
10	0	0	0	0	509	779	0	483	38	4	
11	0	0	0	0	507	765	0	488	38	4	
12	0	0	0	0	510	745	0	492	38	4	
13	0	0	0	0	508	724	0	494	39	4	
14	0	0	0	0	510	704	0	494	38	4	
15	0	0	0	0	511	684	0	491	39	4	
0	0	0	0	0	502	662	0	490	39	4	
1	0	0	0	0	508	638	0	491	38	4	
2	0	0	0	0	500	612	0	493	39	4	
3	0	0	0	0	507	585	0	495	38	4	
4	0	0	0	0	507	557	0	497	38	4	
5	0	0	0	0	509	525	0	497	38	4	
6	0	0	0	0	513	495	0	497	38	4	
7	0	0	0	0	515	464	0	489	39	4	
8	0	0	0	0	501	436	0	487	39	4	
9	0	0	0	0	509	412	0	487	38	4	
10	0	0	0	0	509	395	0	489	38	4	
11	0	0	0	0	505	385	0	490	38	4	
12	0	0	0	0	505	379	0	493	38	4	
13	0	0	0	0	501	376	0	496	38	4	
14	0	0	0	0	511	374	0	492	39	4	
15	0	0	0	0	499	375	0	490	39	4	
0	0	0	0	0	513	376	0	491	39	4	
1	0	0	0	0	518	377	0	492	39	4	
2	0	0	0	0	510	379	0	495	39	4	
3	0	0	0	0	505	383	0	496	39	4	
4	0	0	0	0	508	385	0	498	38	4	
5	0	0	0	0	512	386	0	496	39	4	
6	0	0	0	0	502	391	0	496	39	4	
7	0	0	0	0	504	396	0	493	39	4	
8	0	0	0	0	505	402	0	494	39	4	
9	0	0	0	0	511	411	0	496	39	4	
10	0	0	0	0	504	416	0	520	39	4	
11	0	0	0	0	506	419	0	546	39	4	
12	0	0	0	0	514	422	0	555	38	4	
13	0	0	0	0	514	427	0	575	38	4	
14	0	0	0	0	507	434	0	577	38	4	
15	0	0	0	0	508	440	0	583	39	5	
0	0	0	0	0	500	446	0	590	39	4	
1	0	0	0	0	510	451	0	587	39	4	
2	0	0	0	0	509	452	0	596	38	4	
3	0	0	0	0	505	450	0	594	39	4	
4	0	0	0	0	504	446	0	596	38	4	
5	0	0	0	0	507	440	0	598	38	4	
6	0	0	0	0	508	432	0	588	39	4	
7	0	0	0	0	511	428	0	593	39	5	
8	0	0	0	0	510	428	0	586	39	4	
9	0	0	0	0	500	432	0	585	39	4	
10	0	0	0	0	511	440	0	589	39	4	
11	0	0	0	0	508	443	0	582	39	4	
12	0	0	0	0	514	443	0	589	38	4	
13	0	0	0	0	505	443	0	585	39	4	
14	0	0	0	0	510	448	0	598	39	4	
15	0	0	0	0	506	458	0	588	39	4	
0	0	0	0	0	512	464	0	579	39	4	
1	0	0	0	0	507	470	0	569	38	4	
2	0	0	0	0	511	479	0	554	39	4	
3	0	0	0	0	511	491	0	539	39	4	
4	0	0	0	0	503	498	0	529	38	4	
5	0	0	0	0	502	503	0	519	39	4	
6	0	0	0	0	508	506	0	516	39	4	
7	0	0	0	0	509	507	0	511	39	4	
8	0	0	0	0	509	509	0	501	39	5	
9	0	0	0	0	502	508	0	502	38	4	
10	0	0	0	0	513	508	0	503	38	4	
11	0	0	0	0	505	505	0	504	38	4	
12	0	0	0	0	508	504	0	503	38	4	
13	0	0	0	0	507	503	0	500	39	4	
14	0	0	0	0	510	505	0	498	39	4	
15	0	0	0	0	504	506	0	497	38	4	
0	0	0	0	0	505	505	0	511	39	5	
1	0	0	0	0	504	503	0	496	38	4	
2	0	0	0	0	507	500	0	496	38	4	
3	0	0	0	0	507	497	0	496	38	4	
4	0	0	0	0	500	495	0	498	38	4	
5	0	0	0	0	508	496	0	497	38	4	
6	0	0	0	0	508	499	0	494	38	4	
7	0	0	0	0	515	503	0	490	38	4	
8	0	0	0	0	510	505	0	491	39	4	
9	0	0	0	0	516	507	0	492	39	4	
10	0	0	0	0	500	507	0	493	39	4	
11	0	0	0	0	510	510	0	494	38	4	
12	0	0	0	0	508	509	0	496	38	4	
13	0	0	0	0	510	507	0	508	38	4	
14	0	0	0	0	504	505	0	530	38	4	
15	0	0	0	0	504	504	0	534	38	4	
0	0	0	0	0	504	505	0	554	39	4	
1	0	0	0	0	505	505	0	566	38	5	
2	0	0	0	0	508	505	0	570	39	4	
3	0	0	0	0	504	506	0	582	38	4	
4	0	0	0	0	506	507	0	579	38	4	
5	0	0	0	0	508	506	0	583	38	4	
6	0	0	0	0	507	504	0	579	38	4	
7	0	0	0	0	505	502	0	572	39	4	
8	0	0	0	0	502	500	0	575	39	4	
9	0	0	0	0	504	499	0	568	39	5	
10	0	0	0	0	507	496	0	575	38	4	
11	0	0	0	0	510	494	0	591	38	4	
12	0	0	0	0	512	492	0	571	38	4	
13	0	0	0	0	509	495	0	578	38	4	
14	0	0	0	0	507	499	0	567	39	4	
15	0	0	0	0	506	503	0	559	38	4	
0	0	0	0	0	511	506	0	543	39	4	
1	0	0	0	0	510	506	0	528	39	5	
2	0	0	0	0	503	507	0	518	39	4	
3	0	0	0	0	510	511	0	510	39	4	
4	0	0	0	0	512	512	0	505	38	4	
5	0	0	0	0	518	508	0	513	38	4	
6	0	0	0	0	506	505	0	494	39	4	
7	0	0	0	0	507	503	0	489	39	4	
8	0	0	0	0	503	502	0	488	39	4	
9	0	0	0	0	508	500	0	487	39	4	
10	0	0	0	0	508	500	0	487	39	5	
11	0	0	0	0	505	499	0	488	38	4	
12	0	0	0	0	502	498	0	489	38	4	
13	0	0	0	0	506	497	0	485	39	4	
14	0	0	0	0	507	494	0	481	38	4	
15	0	0	0	0	509	487	0	477	38	4	
0	0	0	0	0	508	479	0	478	39	4	
1	0	0	0	0	505	472	0	484	39	4	
2	0	0	0	0	506	468	0	477	38	5	
3	0	0	0	0	508	471	0	479	38	4	
4	0	0	0	0	504	473	0	478	38	4	
5	0	0	0	0	510	475	0	479	38	4	
6	0	0	0	0	510	478	0	478	39	4	
7	0	0	0	0	504	484	0	475	39	4	
8	0	0	0	0	503	495	0	473	39	4	
9	0	0	0	0	511	504	0	473	38	4	
10	0	0	0	0	503	513	0	476	39	5	
11	0	0	0	0	508	521	0	486	38	4	
12	0	0	0	0	500	524	0	508	38	4	
13	0	0	0	0	507	527	0	518	39	4	
14	0	0	0	0	510	530	0	529	39	4	
15	0	0	0	0	514	536	0	539	39	4	
0	0	0	0	0	500	542	0	536	39	4	
1	0	0	0	0	501	548	0	550	39	4	
2	0	0	0	0	508	551	0	548	39	4	
3	0	0	0	0	510	552	0	545	39	5	
4	0	0	0	0	514	555	0	548	38	4	
5	0	0	0	0	509	555	0	545	39	4	
6	0	0	0	0	512	554	0	532	39	4	
7	0	0	0	0	508	555	0	530	39	4	
8	0	0	0	0	503	553	0	534	39	4	
9	0	0	0	0	502	547	0	540	39	4	
10	0	0	0	0	507	543	0	546	38	4	
11	0	0	0	0	510	541	0	545	39	5	
12	0	0	0	0	510	541	0	530	38	4	
13	0	0	0	0	507	540	0	531	38	4	
14	0	0	0	0	507	539	0	541	39	4	
15	0	0	0	0	514	539	0	536	39	4	
0	0	0	0	0	508	540	0	533	39	4	
1	0	0	0	0	500	540	0	542	38	4	
2	0	0	0	0	509	540	0	543	38	4	
3	0	0	0	0	501	538	0	541	39	4	
4	0	0	0	0	508	536	0	533	38	4	
5	0	0	0	0	511	536	0	519	38	4	
6	0	0	0	0	507	537	0	507	38	4	
7	0	0	0	0	508	538	0	496	39	4	
8	0	0	0	0	507	539	0	488	39	4	
9	0	0	0	0	509	535	0	487	39	4	
10	0	0	0	0	507	531	0	491	39	4	
11	0	0	0	0	505	531	0	479	38	4	
12	0	0	0	0	501	533	0	476	38	5	
13	0	0	0	0	506	533	0	474	39	4	
14	0	0	0	0	514	536	0	470	39	4	
15	0	0	0	0	503	541	0	466	39	4	
0	0	0	0	0	510	545	0	462	39	4	
1	0	0	0	0	513	544	0	462	39	4	
2	0	0	0	0	503	543	0	464	39	4	
3	0	0	0	0	511	542	0	467	39	4	
4	0	0	0	0	507	541	0	472	38	5	
5	0	0	0	0	512	541	0	480	39	4	
6	0	0	0	0	510	541	0	469	39	4	
7	0	0	0	0	504	540	0	465	39	4	
8	0	0	0	0	507	536	0	464	39	4	
9	0	0	0	0	508	534	0	465	39	4	
10	0	0	0	0	509	536	0	467	38	4	
11	0	0	0	0	505	537	0	469	38	4	
12	0	0	0	0	504	538	0	471	38	4	
13	0	0	0	0	511	541	0	474	39	4	
14	0	0	0	0	504	546	0	470	39	4	
15	0	0	0	0	504	551	0	466	39	4	
0	0	0	0	0	507	551	0	481	39	4	
1	0	0	0	0	503	549	0	508	39	4	
2	0	0	0	0	514	550	0	521	39	4	
3	0	0	0	0	512	552	0	540	39	4	
4	0	0	0	0	512	553	0	541	38	4	
5	0	0	0	0	507	551	0	545	38	4	
6	0	0	0	0	503	548	0	552	39	4	
7	0	0	0	0	507	553	0	548	39	4	
8	0	0	0	0	507	562	0	549	39	4	
9	0	0	0	0	500	567	0	544	39	4	
10	0	0	0	0	505	566	0	544	39	4	
11	0	0	0	0	505	563	0	549	38	4	
12	0	0	0	0	510	555	0	537	38	4	
13	0	0	0	0	505	550	0	519	39	5	
14	0	0	0	0	511	547	0	520	38	4	
15	0	0	0	0	508	547	0	519	38	4	
0	0	0	0	0	504	549	0	519	39	4	
1	0	0	0	0	509	551	0	531	38	4	
2	0	0	0	0	509	558	0	527	38	4	
3	0	0	0	0	507	563	0	525	38	4	
4	0	0	0	0	512	564	0	528	38	4	
5	0	0	0	0	509	566	0	536	39	4	
6	0	0	0	0	505	565	0	527	38	4	
7	0	0	0	0	511	565	0	520	39	4	
8	0	0	0	0	508	563	0	506	39	4	
9	0	0	0	0	504	564	0	493	38	4	
10	0	0	0	0	497	571	0	483	39	4	
11	0	0	0	0	506	573	0	478	38	4	
12	0	0	0	0	512	572	0	469	38	4	
13	0	0	0	0	503	575	0	463	39	4	
14	0	0	0	0	511	581	0	460	38	4	
15	0	0	0	0	512	585	0	455	39	4	
0	0	0	0	0	508	588	0	451	39	4	
1	0	0	0	0	503	590	0	455	39	4	
2	0	0	0	0	510	592	0	455	39	4	
3	0	0	0	0	504	595	0	457	38	4	
4	0	0	0	0	504	598	0	462	38	4	
5	0	0	0	0	505	594	0	469	39	4	
6	0	0	0	0	510	590	0	458	39	4	
7	0	0	0	0	510	587	0	452	39	4	
8	0	0	0	0	504	585	0	450	39	4	
9	0	0	0	0	511	584	0	451	39	4	
10	0	0	0	0	513	581	0	454	39	4	
11	0	0	0	0	507	577	0	457	39	4	
12	0	0	0	0	506	575	0	458	38	4	
13	0	0	0	0	500	571	0	458	38	4	
14	0	0	0	0	511	568	0	458	39	4	
15	0	0	0	0	512	565	0	455	39	4	
0	0	0	0	0	506	568	0	456	39	4	
1	0	0	0	0	508	571	0	457	38	4	
2	0	0	0	0	504	572	0	461	39	4	
3	0	0	0	0	509	570	0	476	38	4	
4	0	0	0	0	507	567	0	499	38	4	
5	0	0	0	0	510	561	0	505	39	4	
6	0	0	0	0	498	559	0	522	39	4	
7	0	0	0	0	509	560	0	528	39	4	
8	0	0	0	0	505	560	0	531	39	4	
9	0	0	0	0	510	560	0	544	38	4	
10	0	0	0	0	510	560	0	541	39	4	
11	0	0	0	0	509	560	0	548	38	4	
12	0	0	0	0	511	561	0	548	38	4	
13	0	0	0	0	509	563	0	546	39	4	
14	0	0	0	0	502	560	0	550	39	4	
15	0	0	0	0	505	553	0	538	39	4	
0	0	0	0	0	511	544	0	529	39	4	
1	0	0	0	0	512	535	0	515	39	4	
2	0	0	0	0	506	528	0	502	39	4	
3	0	0	0	0	508	523	0	493	38	4	
4	0	0	0	0	499	520	0	484	38	4	
5	0	0	0	0	511	519	0	481	38	4	
6	0	0	0	0	504	521	0	488	38	4	
7	0	0	0	0	507	520	0	471	39	4	
8	0	0	0	0	510	519	0	469	39	4	
9	0	0	0	0	510	515	0	470	39	4	
10	0	0	0	0	508	510	0	471	39	4	
11	0	0	0	0	505	505	0	472	38	4	
12	0	0	0	0	512	502	0	474	38	4	
13	0	0	0	0	508	500	0	475	38	4	
14	0	0	0	0	506	497	0	473	39	4	
15	0	0	0	0	505	493	0	471	39	4	
0	0	0	0	0	507	489	0	467	39	4	
1	0	0	0	0	510	487	0	471	39	4	
2	0	0	0	0	511	483	0	473	39	4	
3	0	0	0	0	509	477	0	478	39	4	
4	0	0	0	0	503	473	0	478	38	4	
5	0	0	0	0	506	469	0	479	39	4	
6	0	0	0	0	507	463	0	479	39	4	
7	0	0	0	0	507	457	0	478	39	4	
8	0	0	0	0	509	452	0	480	39	4	
9	0	0	0	0	511	452	0	486	39	4	
10	0	0	0	0	503	456	0	482	38	4	
11	0	0	0	0	506	463	0	484	39	4	
12	0	0	0	0	506	467	0	491	38	4	
13	0	0	0	0	509	469	0	513	39	4	
14	0	0	0	0	512	474	0	521	38	4	
15	0	0	0	0	508	477	0	534	39	4	
0	0	0	0	0	504	479	0	549	39	4	
1	0	0	0	0	510	481	0	552	38	4	
2	0	0	0	0	502	481	0	566	38	4	
3	0	0	0	0	512	477	0	566	38	4	
4	0	0	0	0	511	471	0	569	38	4	
5	0	0	0	0	504	464	0	569	39	4	
6	0	0	0	0	508	460	0	558	38	4	
7	0	0	0	0	510	455	0	562	39	4	
8	0	0	0	0	502	450	0	555	39	4	
9	0	0	0	0	505	447	0	548	38	4	
10	0	0	0	0	512	441	0	537	39	4	
11	0	0	0	0	513	435	0	524	38	4	
12	0	0	0	0	510	430	0	513	38	4	
13	0	0	0	0	504	428	0	504	39	4	
14	0	0	0	0	506	425	0	498	39	4	
15	0	0	0	0	499	421	0	492	39	4	
0	0	0	0	0	505	421	0	487	39	4	
1	0	0	0	0	508	423	0	485	39	4	
2	0	0	0	0	511	425	0	483	39	4	
3	0	0	0	0	505	430	0	481	39	4	
4	0	0	0	0	504	435	0	480	38	4	
5	0	0	0	0	512	440	0	481	38	4	
6	0	0	0	0	509	441	0	478	39	4	
7	0	0	0	0	508	440	0	475	39	4	
8	0	0	0	0	506	444	0	477	39	4	
9	0	0	0	0	510	448	0	473	39	4	
10	0	0	0	0	509	445	0	475	39	4	
11	0	0	0	0	509	440	0	477	39	4	
12	0	0	0	0	504	438	0	479	38	4	
13	0	0	0	0	512	436	0	479	38	4	
14	0	0	0	0	508	435	0	478	38	4	
15	0	0	0	0	509	433	0	474	39	4	
0	0	0	0	0	506	431	0	472	39	4	
1	0	0	0	0	505	432	0	476	38	4	
2	0	0	0	0	503	433	0	484	38	4	
3	0	0	0	0	508	432	0	477	38	4	
4	0	0	0	0	500	430	0	479	38	4	
5	0	0	0	0	505	426	0	479	38	4	
6	0	0	0	0	504	421	0	476	39	4	
7	0	0	0	0	510	416	0	473	39	4	
8	0	0	0	0	512	414	0	472	39	4	
9	0	0	0	0	504	415	0	476	39	4	
10	0	0	0	0	512	418	0	480	39	4	
11	0	0	0	0	518	423	0	480	38	4	
12	0	0	0	0	504	428	0	481	38	4	
13	0	0	0	0	502	432	0	480	39	4	
14	0	0	0	0	508	435	0	478	39	4	
15	0	0	0	0	513	434	0	474	39	4	
0	0	0	0	0	510	435	0	473	39	4	
1	0	0	0	0	509	435	0	475	38	4	
2	0	0	0	0	511	431	0	479	39	4	
3	0	0	0	0	509	425	0	489	39	4	
4	0	0	0	0	508	417	0	514	38	4	
5	0	0	0	0	503	412	0	525	39	4	
6	0	0	0	0	504	412	0	537	39	4	
7	0	0	0	0	504	411	0	549	39	4	
8	0	0	0	0	503	412	0	547	39	4	
9	0	0	0	0	504	416	0	561	39	4	
10	0	0	0	0	508	423	0	559	39	4	
11	0	0	0	0	511	430	0	563	39	4	
12	0	0	0	0	515	439	0	569	38	4	
13	0	0	0	0	504	448	0	560	38	4	
14	0	0	0	0	503	457	0	566	39	4	
15	0	0	0	0	507	462	0	559	39	4	
0	0	0	0	0	509	465	0	557	39	4	
1	0	0	0	0	502	467	0	561	39	4	
2	0	0	0	0	509	467	0	555	39	4	
3	0	0	0	0	504	465	0	563	39	4	
4	0	0	0	0	507	464	0	561	38	4	
5	0	0	0	0	506	463	0	563	38	4	
6	0	0	0	0	508	460	0	563	39	4	
7	0	0	0	0	511	457	0	552	39	4	
8	0	0	0	0	506	456	0	543	39	4	
9	0	0	0	0	509	455	0	527	39	4	
10	0	0	0	0	510	452	0	512	39	4	
11	0	0	0	0	505	451	0	502	39	4	
12	0	0	0	0	513	451	0	494	38	4	
13	0	0	0	0	509	453	0	490	39	4	
14	0	0	0	0	511	454	0	485	39	4	
15	0	0	0	0	506	453	0	479	39	4	
0	0	0	0	0	513	455	0	475	39	4	
1	0	0	0	0	514	456	0	473	38	4	
2	0	0	0	0	507	460	0	473	39	4	
3	0	0	0	0	512	465	0	474	39	4	
4	0	0	0	0	506	470	0	474	38	4	
5	0	0	0	0	508	475	0	477	39	4	
6	0	0	0	0	502	478	0	476	39	4	
7	0	0	0	0	501	479	0	468	39	4	
8	0	0	0	0	508	478	0	464	39	4	
9	0	0	0	0	508	475	0	463	38	4	
10	0	0	0	0	508	471	0	465	39	4	
11	0	0	0	0	506	466	0	467	39	4	
12	0	0	0	0	496	463	0	468	38	4	
13	0	0	0	0	512	460	0	467	39	4	
14	0	0	0	0	507	459	0	463	38	4	
15	0	0	0	0	513	462	0	460	39	4	
0	0	0	0	0	511	465	0	468	39	4	
1	0	0	0	0	512	467	0	508	39	4	
2	0	0	0	0	507	464	0	508	39	4	
3	0	0	0	0	502	461	0	524	38	4	
4	0	0	0	0	499	460	0	538	38	4	
5	0	0	0	0	504	464	0	539	38	4	
6	0	0	0	0	510	466	0	551	38	4	
7	0	0	0	0	507	467	0	550	39	4	
8	0	0	0	0	504	469	0	543	39	4	
9	0	0	0	0	508	471	0	542	39	4	
10	0	0	0	0	511	477	0	549	39	4	
11	0	0	0	0	507	484	0	542	38	4	
12	0	0	0	0	510	487	0	536	38	4	
13	0	0	0	0	513	492	0	537	39	4	
14	0	0	0	0	504	496	0	541	39	4	
15	0	0	0	0	508	497	0	532	38	4	
0	0	0	0	0	507	497	0	524	39	4	
1	0	0	0	0	505	497	0	510	38	4	
2	0	0	0	0	502	495	0	499	38	4	
3	0	0	0	0	504	494	0	488	39	4	
4	0	0	0	0	512	489	0	481	38	4	
5	0	0	0	0	508	487	0	475	39	4	
6	0	0	0	0	504	487	0	470	38	4	
7	0	0	0	0	509	487	0	465	39	4	
8	0	0	0	0	507	485	0	459	39	4	
9	0	0	0	0	508	479	0	457	39	4	
10	0	0	0	0	508	471	0	459	39	4	
11	0	0	0	0	503	465	0	461	39	4	
12	0	0	0	0	507	465	0	462	38	4	
13	0	0	0	0	507	467	0	463	39	4	
14	0	0	0	0	509	466	0	460	39	4	
15	0	0	0	0	507	464	0	457	39	4	
0	0	0	0	0	505	460	0	455	39	4	
1	0	0	0	0	505	460	0	457	39	4	
2	0	0	0	0	510	463	0	460	39	4	
3	0	0	0	0	503	467	0	461	39	4	
4	0	0	0	0	516	471	0	465	38	4	
5	0	0	0	0	510	479	0	468	39	4	
6	0	0	0	0	503	487	0	469	39	4	
7	0	0	0	0	512	492	0	464	39	4	
8	0	0	0	0	510	494	0	464	39	4	
9	0	0	0	0	512	496	0	467	39	4	
10	0	0	0	0	506	499	0	470	39	4	
11	0	0	0	0	508	499	0	473	38	4	
12	0	0	0	0	504	498	0	478	38	4	
13	0	0	0	0	508	496	0	480	39	4	
14	0	0	0	0	507	497	0	478	38	4	
15	0	0	0	0	512	503	0	475	39	4	
0	0	0	0	0	501	504	0	473	39	4	
1	0	0	0	0	502	502	0	474	39	4	
2	0	0	0	0	506	503	0	476	39	4	
3	0	0	0	0	512	503	0	478	38	4	
4	0	0	0	0	499	502	0	479	38	4	
5	0	0	0	0	506	499	0	479	38	4	
6	0	0	0	0	505	499	0	480	38	4	
7	0	0	0	0	513	499	0	474	39	4	
8	0	0	0	0	508	497	0	475	39	4	
9	0	0	0	0	507	491	0	475	39	4	
10	0	0	0	0	507	486	0	476	38	4	
11	0	0	0	0	508	484	0	478	39	4	
12	0	0	0	0	511	483	0	481	38	4	
13	0	0	0	0	508	486	0	481	39	4	
14	0	0	0	0	505	488	0	481	39	4	
15	0	0	0	0	508	492	0	478	39	4	
0	0	0	0	0	511	494	0	473	39	4	
1	0	0	0	0	502	495	0	475	39	4	
2	0	0	0	0	502	496	0	479	39	4	
3	0	0	0	0	511	497	0	481	39	4	
4	0	0	0	0	511	498	0	481	38	4	
5	0	0	0	0	512	499	0	484	39	4	
6	0	0	0	0	508	502	0	483	39	4	
7	0	0	0	0	510	505	0	481	39	4	
8	0	0	0	0	502	507	0	483	39	4	
9	0	0	0	0	506	509	0	500	39	4	
10	0	0	0	0	500	509	0	524	39	4	
11	0	0	0	0	512	504	0	536	38	4	
12	0	0	0	0	508	499	0	555	38	4	
13	0	0	0	0	510	496	0	555	39	4	
14	0	0	0	0	510	499	0	558	39	4	
15	0	0	0	0	503	500	0	564	39	4	
0	0	0	0	0	511	500	0	559	39	4	
1	0	0	0	0	510	500	0	572	39	4	
2	0	0	0	0	511	500	0	572	39	4	
3	0	0	0	0	505	500	0	570	39	4	
4	0	0	0	0	509	502	0	576	38	4	
5	0	0	0	0	508	500	0	568	39	4	
6	0	0	0	0	504	499	0	575	38	4	
7	0	0	0	0	503	498	0	565	39	4	
8	0	0	0	0	513	498	0	561	39	4	
9	0	0	0	0	505	500	0	566	38	4	
10	0	0	0	0	508	504	0	559	39	4	
11	0	0	0	0	507	504	0	568	38	4	
12	0	0	0	0	504	504	0	565	38	4	
13	0	0	0	0	510	500	0	564	39	4	
14	0	0	0	0	507	496	0	566	39	4	
15	0	0	0	0	509	494	0	555	39	4	
0	0	0	0	0	511	497	0	562	39	4	
1	0	0	0	0	507	503	0	559	39	4	
2	0	0	0	0	502	509	0	551	39	4	
3	0	0	0	0	507	513	0	541	39	4	
4	0	0	0	0	511	513	0	526	38	4	
5	0	0	0	0	514	511	0	510	39	4	
6	0	0	0	0	507	507	0	499	39	4	
7	0	0	0	0	504	504	0	487	39	4	
8	0	0	0	0	499	502	0	480	39	4	
9	0	0	0	0	505	499	0	478	39	4	
10	0	0	0	0	504	496	0	477	39	4	
11	0	0	0	0	508	493	0	477	38	4	
12	0	0	0	0	507	489	0	479	38	4	
13	0	0	0	0	510	487	0	480	39	4	
14	0	0	0	0	509	484	0	482	38	4	
15	0	0	0	0	510	484	0	480	39	4	
0	0	0	0	0	511	490	0	478	39	4	
1	0	0	0	0	510	497	0	478	39	4	
2	0	0	0	0	512	502	0	480	39	4	
3	0	0	0	0	504	506	0	484	38	4	
4	0	0	0	0	508	510	0	486	38	4	
5	0	0	0	0	505	514	0	488	38	4	
6	0	0	0	0	506	520	0	484	38	4	
7	0	0	0	0	512	525	0	481	39	4	
8	0	0	0	0	514	526	0	483	39	4	
9	0	0	0	0	511	524	0	481	38	4	
10	0	0	0	0	504	523	0	483	39	4	
11	0	0	0	0	511	523	0	485	38	4	
12	0	0	0	0	503	522	0	487	38	4	
13	0	0	0	0	502	521	0	487	38	4	
14	0	0	0	0	500	518	0	483	38	4	
15	0	0	0	0	510	513	0	478	38	4	
0	0	0	0	0	513	509	0	477	39	4	
1	0	0	0	0	502	510	0	482	38	4	
2	0	0	0	0	509	514	0	480	39	4	
3	0	0	0	0	510	519	0	484	39	4	
4	0	0	0	0	505	522	0	485	38	4	
5	0	0	0	0	498	524	0	487	39	4	
6	0	0	0	0	504	527	0	487	39	4	
7	0	0	0	0	504	527	0	489	39	4	
8	0	0	0	0	506	526	0	514	39	4	
9	0	0	0	0	509	523	0	527	39	4	
10	0	0	0	0	500	522	0	545	39	4	
11	0	0	0	0	514	523	0	560	39	4	
12	0	0	0	0	515	522	0	561	38	4	
13	0	0	0	0	512	521	0	574	39	4	
14	0	0	0	0	505	518	0	570	39	4	
15	0	0	0	0	509	517	0	571	39	4	
0	0	0	0	0	509	515	0	576	39	4	
1	0	0	0	0	510	512	0	571	38	4	
2	0	0	0	0	499	510	0	579	39	4	
3	0	0	0	0	503	512	0	576	39	4	
4	0	0	0	0	512	512	0	578	38	4	
5	0	0	0	0	510	509	0	580	39	4	
6	0	0	0	0	512	508	0	562	39	4	
7	0	0	0	0	506	505	0	536	39	4	
8	0	0	0	0	506	502	0	518	39	4	
9	0	0	0	0	503	499	0	523	39	4	
10	0	0	0	0	514	499	0	537	39	4	
11	0	0	0	0	506	502	0	542	38	4	
12	0	0	0	0	513	509	0	559	38	4	
13	0	0	0	0	508	512	0	557	39	4	
14	0	0	0	0	506	512	0	557	39	4	
15	0	0	0	0	502	512	0	564	39	4	
0	0	0	0	0	504	513	0	556	39	4	
1	0	0	0	0	505	515	0	549	39	4	
2	0	0	0	0	511	516	0	535	39	4	
3	0	0	0	0	514	518	0	519	38	4	
4	0	0	0	0	510	519	0	508	38	4	
5	0	0	0	0	512	517	0	502	39	4	
6	0	0	0	0	502	515	0	497	39	4	
7	0	0	0	0	499	515	0	514	39	4	
8	0	0	0	0	508	515	0	527	39	4	
9	0	0	0	0	514	514	0	533	39	4	
10	0	0	0	0	506	512	0	533	39	4	
11	0	0	0	0	508	511	0	527	38	4	
12	0	0	0	0	513	509	0	518	38	4	
13	0	0	0	0	499	506	0	509	38	4	
14	0	0	0	0	508	503	0	501	39	4	
15	0	0	0	0	503	499	0	498	39	4	
0	0	0	0	0	507	494	0	496	39	4	
1	0	0	0	0	509	489	0	488	38	4	
2	0	0	0	0	509	486	0	486	38	4	
3	0	0	0	0	502	482	0	485	39	4	
4	0	0	0	0	502	478	0	484	38	4	
5	0	0	0	0	510	476	0	483	39	4	
6	0	0	0	0	508	476	0	480	39	4	
7	0	0	0	0	511	476	0	476	39	4	
8	0	0	0	0	513	478	0	473	39	4	
9	0	0	0	0	512	484	0	477	39	4	
10	0	0	0	0	507	492	0	481	39	4	
11	0	0	0	0	509	497	0	480	39	4	
12	0	0	0	0	510	497	0	482	38	5	
13	0	0	0	0	502	497	0	484	39	4	
14	0	0	0	0	507	498	0	482	39	4	
15	0	0	0	0	504	496	0	478	39	4	
0	0	0	0	0	506	494	0	477	39	4	
1	0	0	0	0	502	495	0	478	39	4	
2	0	0	0	0	504	498	0	484	39	4	
3	0	0	0	0	509	500	0	500	39	4	
4	0	0	0	0	507	501	0	489	38	5	
5	0	0	0	0	508	501	0	490	39	4	
6	0	0	0	0	511	503	0	504	38	4	
7	0	0	0	0	507	508	0	521	39	4	
8	0	0	0	0	506	511	0	529	39	4	
9	0	0	0	0	505	510	0	550	39	4	
10	0	0	0	0	511	509	0	556	39	4	
11	0	0	0	0	510	507	0	565	38	4	
12	0	0	0	0	513	502	0	573	38	4	
13	0	0	0	0	512	498	0	567	38	4	
14	0	0	0	0	509	495	0	574	39	4	
15	0	0	0	0	505	490	0	566	39	4	
0	0	0	0	0	508	489	0	564	39	4	
1	0	0	0	0	509	490	0	569	39	4	
2	0	0	0	0	505	492	0	562	38	4	
3	0	0	0	0	505	494	0	556	38	4	
4	0	0	0	0	505	495	0	540	38	4	
5	0	0	0	0	502	496	0	523	38	5	
6	0	0	0	0	512	501	0	508	38	4	
7	0	0	0	0	509	503	0	504	39	4	
8	0	0	0	0	510	504	0	523	39	4	
9	0	0	0	0	513	504	0	530	39	4	
10	0	0	0	0	511	505	0	535	39	4	
11	0	0	0	0	512	505	0	541	39	4	
12	0	0	0	0	505	504	0	553	38	4	
13	0	0	0	0	505	503	0	548	39	5	
14	0	0	0	0	510	501	0	543	39	4	
15	0	0	0	0	504	499	0	528	39	4	
0	0	0	0	0	505	496	0	513	39	4	
1	0	0	0	0	502	494	0	503	39	4	
2	0	0	0	0	504	490	0	495	39	4	
3	0	0	0	0	511	487	0	490	38	4	
4	0	0	0	0	507	487	0	488	38	4	
5	0	0	0	0	506	488	0	483	39	4	
6	0	0	0	0	502	491	0	482	39	4	
7	0	0	0	0	508	490	0	478	39	4	
8	0	0	0	0	507	489	0	475	39	4	
9	0	0	0	0	504	489	0	475	39	4	
10	0	0	0	0	508	490	0	476	39	4	
11	0	0	0	0	508	494	0	479	39	4	
12	0	0	0	0	505	498	0	496	38	4	
13	0	0	0	0	509	499	0	476	38	4	
14	0	0	0	0	509	499	0	472	38	5	
15	0	0	0	0	509	499	0	470	39	4	
0	0	0	0	0	510	502	0	468	39	4	
1	0	0	0	0	506	509	0	471	38	4	
2	0	0	0	0	518	519	0	473	38	4	
3	0	0	0	0	506	531	0	476	38	4	
4	0	0	0	0	507	543	0	481	38	4	
5	0	0	0	0	509	560	0	486	38	4	
6	0	0	0	0	513	583	0	478	38	4	
7	0	0	0	0	504	610	0	474	39	4	
8	0	0	0	0	506	636	0	473	39	4	
9	0	0	0	0	507	658	0	475	39	4	
10	0	0	0	0	505	678	0	484	39	4	
11	0	0	0	0	508	697	0	512	38	4	
12	0	0	0	0	515	716	0	525	38	4	
13	0	0	0	0	504	732	0	539	38	4	
14	0	0	0	0	507	748	0	554	39	4	
15	0	0	0	0	505	768	0	558	39	4	
0	0	0	0	0	513	785	0	560	39	4	
1	0	0	0	0	512	801	0	558	38	4	
2	0	0	0	0	507	813	0	560	39	4	
3	0	0	0	0	508	820	0	565	38	4	
4	0	0	0	0	511	820	0	559	38	4	
5	0	0	0	0	509	814	0	564	39	4	
6	0	0	0	0	512	807	0	555	39	4	
7	0	0	0	0	505	794	0	547	39	5	
8	0	0	0	0	504	778	0	533	39	4	
9	0	0	0	0	506	756	0	519	39	4	
10	0	0	0	0	508	732	0	508	39	4	
11	0	0	0	0	511	712	0	498	39	4	
12	0	0	0	0	513	694	0	489	38	4	
13	0	0	0	0	511	672	0	485	39	4	
14	0	0	0	0	502	648	0	481	39	4	
15	0	0	0	0	509	622	0	476	39	4	
0	0	0	0	0	505	595	0	475	39	4	
1	0	0	0	0	504	568	0	470	38	4	
2	0	0	0	0	497	543	0	472	39	4	
3	0	0	0	0	509	519	0	473	38	4	
4	0	0	0	0	511	495	0	476	38	4	
5	0	0	0	0	503	470	0	476	38	4	
6	0	0	0	0	510	448	0	475	38	4	
7	0	0	0	0	510	428	0	471	39	4	
8	0	0	0	0	512	413	0	472	39	4	
9	0	0	0	0	505	399	0	472	39	4	
10	0	0	0	0	502	387	0	473	38	4	
11	0	0	0	0	507	378	0	475	38	4	
12	0	0	0	0	513	372	0	476	38	4	
13	0	0	0	0	504	370	0	477	38	4	
14	0	0	0	0	509	370	0	475	39	4	
15	0	0	0	0	513	373	0	471	38	4	
0	0	0	0	0	506	378	0	469	39	5	
1	0	0	0	0	502	384	0	473	38	4	
2	0	0	0	0	506	391	0	483	39	4	
3	0	0	0	0	503	396	0	482	38	4	
4	0	0	0	0	516	402	0	508	38	4	
5	0	0	0	0	509	408	0	528	39	4	
6	0	0	0	0	504	412	0	538	39	4	
7	0	0	0	0	504	415	0	552	39	4	
8	0	0	0	0	505	417	0	549	39	4	
9	0	0	0	0	508	419	0	560	39	4	
10	0	0	0	0	510	423	0	565	38	4	
11	0	0	0	0	512	428	0	563	38	4	
12	0	0	0	0	509	431	0	572	38	4	
13	0	0	0	0	508	435	0	564	38	4	
14	0	0	0	0	507	442	0	568	39	4	
15	0	0	0	0	514	448	0	562	39	4	
0	0	0	0	0	507	452	0	553	39	4	
1	0	0	0	0	504	456	0	542	39	4	
2	0	0	0	0	514	457	0	529	39	4	
3	0	0	0	0	513	461	0	518	38	4	
4	0	0	0	0	499	464	0	505	38	4	
5	0	0	0	0	508	465	0	497	39	4	
6	0	0	0	0	508	464	0	493	39	4	
7	0	0	0	0	503	464	0	486	39	4	
8	0	0	0	0	505	463	0	482	39	4	
9	0	0	0	0	505	458	0	481	38	4	
10	0	0	0	0	508	453	0	484	39	4	
11	0	0	0	0	508	455	0	487	38	4	
12	0	0	0	0	504	460	0	486	38	4	
13	0	0	0	0	513	469	0	486	38	4	
14	0	0	0	0	506	477	0	484	39	4	
15	0	0	0	0	510	478	0	480	39	4	
0	0	0	0	0	504	476	0	477	39	4	
1	0	0	0	0	506	476	0	478	38	4	
2	0	0	0	0	516	477	0	479	38	4	
3	0	0	0	0	508	478	0	482	38	4	
4	0	0	0	0	505	478	0	481	38	4	
5	0	0	0	0	508	482	0	481	39	4	
6	0	0	0	0	504	484	0	479	39	4	
7	0	0	0	0	501	486	0	472	38	4	
8	0	0	0	0	504	486	0	470	39	4	
9	0	0	0	0	506	486	0	470	38	4	
10	0	0	0	0	512	487	0	472	39	4	
11	0	0	0	0	507	488	0	476	39	4	
12	0	0	0	0	500	490	0	482	38	4	
13	0	0	0	0	512	489	0	497	39	4	
14	0	0	0	0	511	491	0	514	39	4	
15	0	0	0	0	510	492	0	519	39	4	
0	0	0	0	0	511	491	0	539	39	4	
1	0	0	0	0	514	491	0	545	39	4	
2	0	0	0	0	508	493	0	552	39	5	
3	0	0	0	0	501	497	0	562	39	4	
4	0	0	0	0	512	498	0	558	38	4	
5	0	0	0	0	507	498	0	568	39	4	
6	0	0	0	0	506	498	0	561	39	4	
7	0	0	0	0	506	497	0	559	39	4	
8	0	0	0	0	507	494	0	564	39	4	
9	0	0	0	0	506	494	0	557	38	4	
10	0	0	0	0	505	496	0	548	38	5	
11	0	0	0	0	510	498	0	532	38	4	
12	0	0	0	0	508	499	0	514	38	4	
13	0	0	0	0	508	498	0	500	39	4	
14	0	0	0	0	514	495	0	496	39	4	
15	0	0	0	0	502	491	0	512	39	4	
0	0	0	0	0	508	488	0	518	39	4	
1	0	0	0	0	504	490	0	508	39	4	
2	0	0	0	0	507	492	0	499	39	4	
3	0	0	0	0	508	490	0	493	39	4	
4	0	0	0	0	510	489	0	486	38	4	
5	0	0	0	0	508	492	0	482	39	4	
6	0	0	0	0	505	496	0	476	39	4	
7	0	0	0	0	503	495	0	471	39	4	
8	0	0	0	0	509	494	0	469	39	4	
9	0	0	0	0	511	494	0	468	39	4	
10	0	0	0	0	504	494	0	470	38	4	
11	0	0	0	0	512	496	0	473	38	5	
12	0	0	0	0	514	497	0	476	38	4	
13	0	0	0	0	508	499	0	479	38	4	
14	0	0	0	0	506	499	0	477	38	4	
15	0	0	0	0	505	500	0	473	38	4	
0	0	0	0	0	509	500	0	472	39	4	
1	0	0	0	0	499	500	0	476	39	4	
2	0	0	0	0	509	502	0	488	39	4	
3	0	0	0	0	506	506	0	479	38	5	
4	0	0	0	0	502	507	0	481	38	4	
5	0	0	0	0	506	505	0	480	38	4	
6	0	0	0	0	506	504	0	478	38	4	
7	0	0	0	0	510	503	0	475	38	4	
8	0	0	0	0	508	499	0	479	39	4	
9	0	0	0	0	507	497	0	502	38	4	
10	0	0	0	0	507	496	0	521	38	4	
11	0	0	0	0	510	496	0	537	39	4	
12	0	0	0	0	508	496	0	557	38	4	
13	0	0	0	0	508	501	0	556	38	4	
14	0	0	0	0	505	504	0	565	38	4	
15	0	0	0	0	510	505	0	566	39	4	
0	0	0	0	0	506	509	0	564	39	4	
1	0	0	0	0	508	512	0	573	38	4	
2	0	0	0	0	512	512	0	568	39	4	
3	0	0	0	0	505	511	0	574	38	4	
4	0	0	0	0	505	512	0	574	38	5	
5	0	0	0	0	500	515	0	574	39	4	
6	0	0	0	0	512	519	0	581	38	4	
7	0	0	0	0	506	521	0	570	39	4	
8	0	0	0	0	504	523	0	560	39	4	
9	0	0	0	0	507	525	0	544	39	4	
10	0	0	0	0	507	525	0	530	38	4	
11	0	0	0	0	508	526	0	518	38	4	
12	0	0	0	0	516	524	0	508	38	5	
13	0	0	0	0	503	522	0	502	38	4	
14	0	0	0	0	504	521	0	498	38	4	
15	0	0	0	0	508	521	0	494	39	4	
0	0	0	0	0	507	522	0	493	39	4	
1	0	0	0	0	510	521	0	506	38	4	
2	0	0	0	0	513	521	0	490	39	4	
3	0	0	0	0	510	523	0	490	38	4	
4	0	0	0	0	511	528	0	491	38	5	
5	0	0	0	0	504	529	0	490	38	4	
6	0	0	0	0	508	527	0	486	38	4	
7	0	0	0	0	512	524	0	481	39	4	
8	0	0	0	0	504	523	0	479	39	4	
9	0	0	0	0	512	524	0	481	39	4	
10	0	0	0	0	509	523	0	486	39	4	
11	0	0	0	0	504	524	0	488	39	4	
12	0	0	0	0	505	521	0	487	38	4	
13	0	0	0	0	507	520	0	487	39	5	
14	0	0	0	0	503	517	0	486	39	4	
15	0	0	0	0	508	511	0	483	39	4	
0	0	0	0	0	510	508	0	484	39	4	
1	0	0	0	0	507	505	0	484	38	4	
2	0	0	0	0	512	503	0	486	39	4	
3	0	0	0	0	508	502	0	488	39	4	
4	0	0	0	0	505	504	0	491	38	4	
5	0	0	0	0	504	508	0	494	39	5	
6	0	0	0	0	505	514	0	489	39	4	
7	0	0	0	0	512	525	0	486	39	5	
8	0	0	0	0	511	539	0	484	39	4	
9	0	0	0	0	506	548	0	486	39	4	
10	0	0	0	0	504	555	0	489	39	4	
11	0	0	0	0	507	557	0	492	39	4	
12	0	0	0	0	511	560	0	494	38	4	
13	0	0	0	0	502	565	0	495	39	5	
14	0	0	0	0	508	566	0	494	39	4	
15	0	0	0	0	508	562	0	491	39	4	
0	0	0	0	0	516	558	0	487	39	4	
1	0	0	0	0	507	556	0	488	38	4	
2	0	0	0	0	502	553	0	490	39	4	
3	0	0	0	0	511	550	0	492	38	4	
4	0	0	0	0	515	545	0	492	38	4	
5	0	0	0	0	510	540	0	492	38	4	
6	0	0	0	0	504	539	0	506	39	5	
7	0	0	0	0	503	536	0	524	39	4	
8	0	0	0	0	504	529	0	529	39	4	
9	0	0	0	0	504	522	0	551	38	4	
10	0	0	0	0	508	519	0	558	39	4	
11	0	0	0	0	504	519	0	565	38	4	
12	0	0	0	0	509	519	0	575	38	4	
13	0	0	0	0	506	521	0	569	38	4	
14	0	0	0	0	509	527	0	576	38	5	
15	0	0	0	0	510	536	0	567	38	4	
0	0	0	0	0	509	541	0	565	39	4	
1	0	0	0	0	503	545	0	572	39	4	
2	0	0	0	0	504	553	0	563	39	4	
3	0	0	0	0	506	561	0	572	39	4	
4	0	0	0	0	508	567	0	569	38	4	
5	0	0	0	0	505	569	0	569	38	4	
6	0	0	0	0	508	571	0	572	39	4	
7	0	0	0	0	513	574	0	561	39	4	
8	0	0	0	0	510	579	0	568	39	4	
9	0	0	0	0	511	583	0	567	39	4	
10	0	0	0	0	508	583	0	560	38	4	
11	0	0	0	0	505	584	0	547	39	4	
12	0	0	0	0	514	584	0	533	38	4	
13	0	0	0	0	503	583	0	520	39	4	
14	0	0	0	0	505	582	0	505	39	4	
15	0	0	0	0	508	579	0	493	39	5	
0	0	0	0	0	513	578	0	489	39	4	
1	0	0	0	0	507	573	0	487	38	4	
2	0	0	0	0	510	570	0	488	39	4	
3	0	0	0	0	504	571	0	487	38	4	
4	0	0	0	0	514	572	0	488	38	4	
5	0	0	0	0	508	572	0	489	39	4	
6	0	0	0	0	502	571	0	489	39	4	
7	0	0	0	0	506	570	0	486	39	5	
8	0	0	0	0	511	571	0	484	39	4	
9	0	0	0	0	502	575	0	485	39	4	
10	0	0	0	0	511	576	0	489	38	4	
11	0	0	0	0	516	577	0	489	39	4	
12	0	0	0	0	508	578	0	491	38	4	
13	0	0	0	0	504	576	0	493	38	4	
14	0	0	0	0	508	575	0	490	38	4	
15	0	0	0	0	511	574	0	487	39	4	
0	0	0	0	0	512	570	0	492	39	4	
1	0	0	0	0	507	565	0	519	39	4	
2	0	0	0	0	511	561	0	531	39	4	
3	0	0	0	0	512	560	0	549	39	4	
4	0	0	0	0	506	560	0	566	38	4	
5	0	0	0	0	503	560	0	567	39	4	
6	0	0	0	0	505	559	0	579	38	4	
7	0	0	0	0	515	558	0	574	39	4	
8	0	0	0	0	508	559	0	574	39	5	
9	0	0	0	0	502	560	0	579	39	4	
10	0	0	0	0	503	562	0	571	39	4	
11	0	0	0	0	505	564	0	564	39	4	
12	0	0	0	0	511	565	0	564	38	4	
13	0	0	0	0	508	567	0	531	39	4	
14	0	0	0	0	507	570	0	521	39	4	
15	0	0	0	0	503	569	0	514	39	4	
0	0	0	0	0	505	563	0	508	39	5	
1	0	0	0	0	513	561	0	503	38	4	
2	0	0	0	0	509	563	0	500	38	4	
3	0	0	0	0	515	564	0	499	38	4	
4	0	0	0	0	516	564	0	502	38	4	
5	0	0	0	0	505	562	0	499	38	4	
6	0	0	0	0	503	560	0	494	39	4	
7	0	0	0	0	500	560	0	490	39	4	
8	0	0	0	0	499	561	0	489	39	4	
9	0	0	0	0	506	562	0	493	39	4	
10	0	0	0	0	501	560	0	496	39	4	
11	0	0	0	0	507	560	0	500	39	4	
12	0	0	0	0	504	556	0	503	38	4	
13	0	0	0	0	515	553	0	505	39	4	
14	0	0	0	0	515	551	0	504	39	4	
15	0	0	0	0	505	550	0	498	39	4	
0	0	0	0	0	506	547	0	498	39	4	
1	0	0	0	0	508	542	0	499	38	5	
2	0	0	0	0	512	535	0	501	39	4	
3	0	0	0	0	504	529	0	503	39	4	
4	0	0	0	0	504	523	0	504	38	4	
5	0	0	0	0	511	518	0	505	39	4	
6	0	0	0	0	511	515	0	502	39	4	
7	0	0	0	0	505	513	0	511	39	4	
8	0	0	0	0	505	509	0	540	39	4	
9	0	0	0	0	507	501	0	550	39	5	
10	0	0	0	0	505	495	0	569	38	4	
11	0	0	0	0	509	489	0	579	39	4	
12	0	0	0	0	506	487	0	581	38	4	
13	0	0	0	0	507	487	0	590	38	4	
14	0	0	0	0	504	489	0	580	39	4	
15	0	0	0	0	506	490	0	583	39	4	
0	0	0	0	0	516	491	0	582	39	4	
1	0	0	0	0	510	492	0	583	38	4	
2	0	0	0	0	508	492	0	593	38	4	
3	0	0	0	0	503	491	0	585	39	4	
4	0	0	0	0	510	492	0	579	38	4	
5	0	0	0	0	503	492	0	581	38	4	
6	0	0	0	0	506	489	0	584	39	4	
7	0	0	0	0	505	484	0	575	39	4	
8	0	0	0	0	503	478	0	567	39	4	
9	0	0	0	0	511	474	0	551	38	4	
10	0	0	0	0	512	474	0	536	39	5	
11	0	0	0	0	505	475	0	526	39	4	
12	0	0	0	0	512	472	0	521	38	4	
13	0	0	0	0	509	468	0	513	39	4	
14	0	0	0	0	507	464	0	509	39	4	
15	0	0	0	0	514	461	0	505	39	4	
0	0	0	0	0	507	458	0	502	39	4	
1	0	0	0	0	513	452	0	502	39	4	
2	0	0	0	0	510	448	0	502	38	5	
3	0	0	0	0	504	444	0	502	39	4	
4	0	0	0	0	505	442	0	500	38	4	
5	0	0	0	0	504	440	0	504	39	4	
6	0	0	0	0	504	440	0	504	38	4	
7	0	0	0	0	505	442	0	495	39	4	
8	0	0	0	0	506	440	0	495	39	4	
9	0	0	0	0	511	436	0	496	39	4	
10	0	0	0	0	504	435	0	497	39	4	
11	0	0	0	0	503	435	0	499	39	4	
12	0	0	0	0	510	437	0	501	38	4	
13	0	0	0	0	504	438	0	503	38	4	
14	0	0	0	0	504	437	0	501	38	4	
15	0	0	0	0	509	433	0	496	39	4	
0	0	0	0	0	514	431	0	495	39	4	
1	0	0	0	0	500	428	0	497	38	4	
2	0	0	0	0	508	428	0	497	38	4	
3	0	0	0	0	507	431	0	499	38	5	
4	0	0	0	0	504	430	0	513	38	4	
5	0	0	0	0	503	430	0	540	38	4	
6	0	0	0	0	511	432	0	551	38	4	
7	0	0	0	0	516	434	0	568	39	4	
8	0	0	0	0	505	436	0	575	39	4	
9	0	0	0	0	507	436	0	578	38	4	
10	0	0	0	0	512	434	0	588	39	4	
11	0	0	0	0	508	432	0	581	39	5	
12	0	0	0	0	512	431	0	587	38	4	
13	0	0	0	0	503	433	0	587	39	4	
14	0	0	0	0	512	433	0	581	39	4	
15	0	0	0	0	503	432	0	587	39	4	
0	0	0	0	0	505	433	0	579	39	4	
1	0	0	0	0	508	432	0	584	38	4	
2	0	0	0	0	509	430	0	583	38	4	
3	0	0	0	0	503	428	0	577	39	4	
4	0	0	0	0	508	425	0	571	38	4	
5	0	0	0	0	505	425	0	579	39	4	
6	0	0	0	0	511	427	0	573	39	4	
7	0	0	0	0	502	430	0	564	39	4	
8	0	0	0	0	511	429	0	553	39	4	
9	0	0	0	0	503	425	0	539	39	4	
10	0	0	0	0	505	423	0	525	39	4	
11	0	0	0	0	505	426	0	515	38	4	
12	0	0	0	0	504	433	0	506	38	5	
13	0	0	0	0	513	440	0	499	39	4	
14	0	0	0	0	509	444	0	496	39	4	
15	0	0	0	0	503	442	0	487	39	4	
0	0	0	0	0	508	442	0	483	39	4	
1	0	0	0	0	508	447	0	482	38	4	
2	0	0	0	0	507	451	0	486	39	4	
3	0	0	0	0	507	455	0	492	39	4	
4	0	0	0	0	513	457	0	487	38	5	
5	0	0	0	0	509	457	0	488	39	4	
6	0	0	0	0	502	455	0	486	39	4	
7	0	0	0	0	506	454	0	483	39	4	
8	0	0	0	0	511	453	0	480	39	4	
9	0	0	0	0	504	451	0	482	39	4	
10	0	0	0	0	505	446	0	483	38	4	
11	0	0	0	0	505	443	0	484	38	4	
12	0	0	0	0	507	442	0	488	38	5	
13	0	0	0	0	507	442	0	496	39	4	
14	0	0	0	0	503	444	0	485	38	4	
15	0	0	0	0	509	445	0	480	39	4	
0	0	0	0	0	509	446	0	477	39	4	
1	0	0	0	0	508	446	0	480	39	4	
2	0	0	0	0	502	446	0	482	39	4	
3	0	0	0	0	506	447	0	487	39	4	
4	0	0	0	0	515	450	0	513	38	4	
5	0	0	0	0	511	455	0	530	38	5	
6	0	0	0	0	506	457	0	542	39	4	
7	0	0	0	0	502	459	0	558	39	4	
8	0	0	0	0	503	459	0	558	39	4	
9	0	0	0	0	507	461	0	570	38	4	
10	0	0	0	0	508	462	0	573	39	4	
11	0	0	0	0	507	465	0	572	38	4	
12	0	0	0	0	506	467	0	582	38	4	
13	0	0	0	0	508	467	0	574	39	5	
14	0	0	0	0	509	466	0	578	39	4	
15	0	0	0	0	507	463	0	581	39	5	
0	0	0	0	0	508	462	0	561	39	4	
1	0	0	0	0	504	463	0	548	39	4	
2	0	0	0	0	509	464	0	531	39	4	
3	0	0	0	0	515	467	0	517	39	4	
4	0	0	0	0	505	468	0	504	38	4	
5	0	0	0	0	504	468	0	496	39	5	
6	0	0	0	0	509	466	0	494	39	4	
7	0	0	0	0	508	462	0	489	39	5	
8	0	0	0	0	507	459	0	494	39	4	
9	0	0	0	0	511	460	0	482	39	4	
10	0	0	0	0	506	461	0	481	39	4	
11	0	0	0	0	512	463	0	480	39	4	
12	0	0	0	0	497	469	0	479	38	4	
13	0	0	0	0	513	474	0	477	39	4	
14	0	0	0	0	512	475	0	473	38	5	
15	0	0	0	0	506	476	0	470	39	5	
0	0	0	0	0	509	476	0	469	39	4	
1	0	0	0	0	510	477	0	473	39	4	
2	0	0	0	0	507	481	0	475	38	4	
3	0	0	0	0	509	484	0	477	38	4	
4	0	0	0	0	515	483	0	480	38	4	
5	0	0	0	0	500	480	0	481	38	4	
6	0	0	0	0	506	480	0	479	38	5	
7	0	0	0	0	509	481	0	474	39	4	
8	0	0	0	0	504	484	0	474	39	4	
9	0	0	0	0	507	484	0	478	38	4	
10	0	0	0	0	503	483	0	484	39	4	
11	0	0	0	0	510	482	0	485	38	4	
12	0	0	0	0	510	482	0	488	38	4	
13	0	0	0	0	506	482	0	488	39	4	
14	0	0	0	0	506	481	0	487	39	4	
15	0	0	0	0	505	477	0	491	39	4	
0	0	0	0	0	505	471	0	516	39	4	
1	0	0	0	0	509	469	0	528	39	4	
2	0	0	0	0	506	469	0	543	39	4	
3	0	0	0	0	505	470	0	560	38	4	
4	0	0	0	0	506	469	0	562	38	4	
5	0	0	0	0	518	468	0	572	39	4	
6	0	0	0	0	507	468	0	563	39	4	
7	0	0	0	0	502	471	0	561	39	5	
8	0	0	0	0	505	473	0	567	39	4	
9	0	0	0	0	508	478	0	560	39	4	
10	0	0	0	0	506	484	0	568	39	4	
11	0	0	0	0	504	490	0	562	38	4	
12	0	0	0	0	507	497	0	560	38	4	
13	0	0	0	0	508	502	0	564	39	4	
14	0	0	0	0	511	505	0	555	38	4	
15	0	0	0	0	511	507	0	545	39	5	
0	0	0	0	0	510	505	0	531	39	4	
1	0	0	0	0	506	501	0	519	38	4	
2	0	0	0	0	511	497	0	510	38	4	
3	0	0	0	0	507	496	0	503	38	4	
4	0	0	0	0	510	498	0	497	38	4	
5	0	0	0	0	501	499	0	494	38	4	
6	0	0	0	0	512	496	0	489	38	4	
7	0	0	0	0	500	496	0	486	39	4	
8	0	0	0	0	508	494	0	485	39	4	
9	0	0	0	0	501	492	0	488	38	4	
10	0	0	0	0	514	491	0	488	38	4	
11	0	0	0	0	512	487	0	489	38	4	
12	0	0	0	0	513	480	0	491	38	4	
13	0	0	0	0	507	475	0	492	38	4	
14	0	0	0	0	506	476	0	490	38	4	
15	0	0	0	0	512	480	0	486	39	4	
0	0	0	0	0	507	484	0	485	39	5	
1	0	0	0	0	504	491	0	488	39	4	
2	0	0	0	0	508	497	0	494	38	4	
3	0	0	0	0	506	503	0	493	39	4	
4	0	0	0	0	511	508	0	494	38	4	
5	0	0	0	0	513	512	0	492	38	4	
6	0	0	0	0	500	515	0	492	39	4	
