# OpenSignals Text File Format. Version 1
# {"98:D3:51:FD:71:01": {"position": 0, "device": "bitalino_rev", "device name": "98:D3:51:FD:71:01", "device connection": "BTH98:D3:51:FD:71:01", "sampling rate": 1000, "resolution": [4, 1, 1, 1, 1, 10, 10, 10, 10, 6, 6], "firmware version": 1282, "comments": "", "keywords": "", "mode": 0, "sync interval": 2, "date": "2024-4-19", "time": "12:14:11.954", "channels": [1, 2, 3, 4, 5, 6], "sensor": ["RAW", "RAW", "RAW", "RAW", "RAW", "RAW"], "label": ["A1", "A2", "A3", "A4", "A5", "A6"], "column": ["nSeq", "I1", "I2", "O1", "O2", "A1", "A2", "A3", "A4", "A5", "A6"], "special": [{}, {}, {}, {}, {}, {}], "digital IO": [0, 0, 1, 1]}}
# EndOfHeader
0	0	0	0	0	499	366	0	498	39	8	
1	0	0	0	0	506	366	0	502	38	8	
2	0	0	0	0	510	365	0	499	38	8	
3	0	0	0	0	514	364	0	499	38	8	
4	0	0	0	0	503	363	0	501	39	8	
5	0	0	0	0	499	362	0	500	39	8	
6	0	0	0	0	505	360	0	502	38	8	
7	0	0	0	0	512	359	0	498	38	8	
8	0	0	0	0	515	357	0	500	38	8	
9	0	0	0	0	510	356	0	500	38	8	
10	0	0	0	0	509	355	0	498	39	8	
11	0	0	0	0	513	354	0	500	39	8	
12	0	0	0	0	506	352	0	509	38	8	
13	0	0	0	0	507	350	0	508	39	8	
14	0	0	0	0	508	349	0	508	39	8	
15	0	0	0	0	503	348	0	508	39	8	
0	0	0	0	0	506	348	0	502	39	8	
1	0	0	0	0	515	347	0	498	38	8	
2	0	0	0	0	508	345	0	497	38	8	
3	0	0	0	0	511	346	0	498	39	8	
4	0	0	0	0	502	348	0	493	38	8	
5	0	0	0	0	504	351	0	494	39	8	
6	0	0	0	0	515	353	0	489	39	8	
7	0	0	0	0	508	356	0	491	39	8	
8	0	0	0	0	512	360	0	495	39	8	
9	0	0	0	0	503	364	0	488	38	8	
10	0	0	0	0	505	368	0	492	39	8	
11	0	0	0	0	507	372	0	487	39	8	
12	0	0	0	0	507	377	0	487	38	8	
13	0	0	0	0	502	382	0	489	39	8	
14	0	0	0	0	503	385	0	486	39	8	
15	0	0	0	0	506	390	0	490	39	8	
0	0	0	0	0	509	395	0	487	39	8	
1	0	0	0	0	508	399	0	494	38	8	
2	0	0	0	0	510	405	0	493	39	8	
3	0	0	0	0	511	408	0	490	39	8	
4	0	0	0	0	507	412	0	495	39	8	
5	0	0	0	0	510	414	0	513	39	8	
6	0	0	0	0	503	415	0	537	39	8	
7	0	0	0	0	509	417	0	558	39	8	
8	0	0	0	0	504	418	0	561	39	8	
9	0	0	0	0	514	417	0	572	38	8	
10	0	0	0	0	508	418	0	576	39	8	
11	0	0	0	0	507	418	0	570	39	8	
12	0	0	0	0	506	419	0	579	39	8	
13	0	0	0	0	508	419	0	571	39	8	
14	0	0	0	0	495	419	0	577	39	8	
15	0	0	0	0	510	419	0	569	39	8	
0	0	0	0	0	508	419	0	563	39	8	
1	0	0	0	0	504	419	0	550	38	8	
2	0	0	0	0	503	420	0	532	39	8	
3	0	0	0	0	504	421	0	518	38	8	
4	0	0	0	0	509	423	0	507	39	8	
5	0	0	0	0	507	425	0	500	39	8	
6	0	0	0	0	514	430	0	497	39	8	
7	0	0	0	0	508	433	0	494	39	8	
8	0	0	0	0	504	438	0	499	39	8	
9	0	0	0	0	510	443	0	488	38	8	
10	0	0	0	0	504	447	0	489	38	8	
11	0	0	0	0	512	452	0	492	39	8	
12	0	0	0	0	510	456	0	487	39	8	
13	0	0	0	0	507	461	0	491	39	8	
14	0	0	0	0	518	466	0	486	38	8	
15	0	0	0	0	501	471	0	488	38	8	
0	0	0	0	0	504	476	0	484	39	8	
1	0	0	0	0	502	480	0	477	38	8	
2	0	0	0	0	508	484	0	483	39	8	
3	0	0	0	0	509	489	0	480	38	8	
4	0	0	0	0	507	493	0	482	38	8	
5	0	0	0	0	499	499	0	488	39	8	
6	0	0	0	0	510	502	0	488	39	8	
7	0	0	0	0	504	507	0	490	39	8	
8	0	0	0	0	514	512	0	482	38	8	
9	0	0	0	0	502	516	0	480	38	8	
10	0	0	0	0	510	521	0	487	39	8	
11	0	0	0	0	504	524	0	483	39	8	
12	0	0	0	0	507	529	0	487	39	8	
13	0	0	0	0	508	532	0	510	39	8	
14	0	0	0	0	505	536	0	527	38	8	
15	0	0	0	0	510	541	0	540	39	8	
0	0	0	0	0	503	545	0	559	39	8	
1	0	0	0	0	505	550	0	560	38	8	
2	0	0	0	0	506	553	0	567	38	8	
3	0	0	0	0	515	556	0	570	38	8	
4	0	0	0	0	508	561	0	572	39	8	
5	0	0	0	0	502	565	0	583	39	8	
6	0	0	0	0	508	569	0	580	39	8	
7	0	0	0	0	500	572	0	582	39	8	
8	0	0	0	0	505	576	0	576	39	8	
9	0	0	0	0	512	580	0	569	38	8	
10	0	0	0	0	500	583	0	576	39	8	
11	0	0	0	0	507	587	0	570	39	8	
12	0	0	0	0	514	590	0	560	39	8	
13	0	0	0	0	510	594	0	544	39	8	
14	0	0	0	0	501	598	0	531	39	8	
15	0	0	0	0	507	600	0	518	39	8	
0	0	0	0	0	508	603	0	508	39	8	
1	0	0	0	0	522	607	0	497	38	8	
2	0	0	0	0	507	610	0	492	39	8	
3	0	0	0	0	507	613	0	491	39	8	
4	0	0	0	0	504	614	0	484	39	8	
5	0	0	0	0	502	616	0	485	39	8	
6	0	0	0	0	505	617	0	480	39	8	
7	0	0	0	0	507	617	0	478	38	8	
8	0	0	0	0	508	619	0	478	39	8	
9	0	0	0	0	518	617	0	471	38	8	
10	0	0	0	0	504	618	0	478	39	8	
11	0	0	0	0	502	619	0	477	38	8	
12	0	0	0	0	504	618	0	478	38	8	
13	0	0	0	0	508	620	0	484	39	8	
14	0	0	0	0	504	619	0	479	38	8	
15	0	0	0	0	506	619	0	486	38	8	
0	0	0	0	0	513	619	0	478	38	8	
1	0	0	0	0	512	617	0	480	38	8	
2	0	0	0	0	500	618	0	483	39	8	
3	0	0	0	0	512	617	0	480	39	8	
4	0	0	0	0	504	617	0	487	39	8	
5	0	0	0	0	516	617	0	483	39	8	
6	0	0	0	0	512	615	0	484	38	8	
7	0	0	0	0	502	616	0	488	39	8	
8	0	0	0	0	507	615	0	486	38	8	
9	0	0	0	0	500	614	0	509	38	8	
10	0	0	0	0	511	615	0	529	38	8	
11	0	0	0	0	507	615	0	547	38	8	
12	0	0	0	0	508	615	0	564	39	8	
13	0	0	0	0	509	613	0	561	39	8	
14	0	0	0	0	502	612	0	574	39	8	
15	0	0	0	0	512	613	0	575	39	8	
0	0	0	0	0	513	611	0	574	39	8	
1	0	0	0	0	508	612	0	576	38	8	
2	0	0	0	0	504	611	0	567	39	8	
3	0	0	0	0	509	611	0	577	39	8	
4	0	0	0	0	520	612	0	574	39	8	
5	0	0	0	0	503	611	0	569	39	8	
6	0	0	0	0	500	610	0	569	39	8	
7	0	0	0	0	507	610	0	573	39	8	
8	0	0	0	0	507	610	0	565	39	8	
9	0	0	0	0	515	608	0	556	38	8	
10	0	0	0	0	511	607	0	537	38	8	
11	0	0	0	0	510	608	0	524	39	8	
12	0	0	0	0	506	607	0	511	39	8	
13	0	0	0	0	500	607	0	502	39	8	
14	0	0	0	0	502	607	0	492	39	8	
15	0	0	0	0	505	605	0	491	39	8	
0	0	0	0	0	504	607	0	488	39	8	
1	0	0	0	0	514	606	0	477	38	8	
2	0	0	0	0	507	606	0	480	38	8	
3	0	0	0	0	511	606	0	477	38	8	
4	0	0	0	0	515	604	0	480	38	8	
5	0	0	0	0	506	605	0	485	39	8	
6	0	0	0	0	508	604	0	481	38	8	
7	0	0	0	0	504	604	0	485	39	8	
8	0	0	0	0	506	604	0	476	39	8	
9	0	0	0	0	508	604	0	476	38	8	
10	0	0	0	0	507	604	0	480	39	8	
11	0	0	0	0	505	603	0	477	39	8	
12	0	0	0	0	502	603	0	481	39	8	
13	0	0	0	0	505	603	0	479	39	8	
14	0	0	0	0	505	601	0	480	38	8	
15	0	0	0	0	507	602	0	485	38	8	
0	0	0	0	0	504	601	0	474	38	8	
1	0	0	0	0	504	602	0	478	38	8	
2	0	0	0	0	512	601	0	473	38	8	
3	0	0	0	0	516	601	0	478	38	8	
4	0	0	0	0	501	602	0	483	38	8	
5	0	0	0	0	509	601	0	478	39	8	
6	0	0	0	0	501	601	0	485	39	8	
7	0	0	0	0	514	601	0	478	39	8	
8	0	0	0	0	506	600	0	478	39	8	
9	0	0	0	0	515	601	0	475	39	8	
10	0	0	0	0	510	600	0	471	39	8	
11	0	0	0	0	505	600	0	476	39	8	
12	0	0	0	0	511	600	0	475	39	8	
13	0	0	0	0	504	599	0	480	39	8	
14	0	0	0	0	505	599	0	482	39	8	
15	0	0	0	0	502	598	0	480	39	8	
0	0	0	0	0	502	599	0	487	39	8	
1	0	0	0	0	510	598	0	503	38	8	
2	0	0	0	0	510	597	0	519	38	8	
3	0	0	0	0	506	596	0	533	39	8	
4	0	0	0	0	505	596	0	552	39	8	
5	0	0	0	0	498	596	0	555	39	8	
6	0	0	0	0	512	595	0	562	39	8	
7	0	0	0	0	508	594	0	557	38	8	
8	0	0	0	0	517	594	0	554	39	8	
9	0	0	0	0	497	593	0	566	38	8	
10	0	0	0	0	512	593	0	555	39	8	
11	0	0	0	0	506	592	0	560	38	8	
12	0	0	0	0	508	591	0	561	38	8	
13	0	0	0	0	507	590	0	562	39	8	
14	0	0	0	0	500	590	0	571	38	8	
15	0	0	0	0	505	590	0	561	39	8	
0	0	0	0	0	500	589	0	561	38	8	
1	0	0	0	0	512	588	0	557	38	8	
2	0	0	0	0	505	589	0	555	39	8	
3	0	0	0	0	508	588	0	543	39	8	
4	0	0	0	0	500	588	0	526	38	8	
5	0	0	0	0	514	586	0	525	39	8	
6	0	0	0	0	511	585	0	502	38	8	
7	0	0	0	0	505	585	0	496	39	8	
8	0	0	0	0	507	583	0	482	38	8	
9	0	0	0	0	508	582	0	481	38	8	
10	0	0	0	0	504	581	0	473	38	8	
11	0	0	0	0	512	579	0	473	38	8	
12	0	0	0	0	511	579	0	481	39	8	
13	0	0	0	0	502	578	0	470	39	8	
14	0	0	0	0	510	577	0	475	39	8	
15	0	0	0	0	507	576	0	471	38	8	
0	0	0	0	0	509	575	0	475	39	8	
1	0	0	0	0	504	574	0	477	38	8	
2	0	0	0	0	499	572	0	468	39	8	
3	0	0	0	0	500	571	0	492	38	8	
4	0	0	0	0	514	570	0	473	38	8	
5	0	0	0	0	510	569	0	479	39	8	
6	0	0	0	0	508	569	0	484	39	8	
7	0	0	0	0	507	566	0	481	38	8	
8	0	0	0	0	509	566	0	483	38	8	
9	0	0	0	0	515	565	0	473	38	8	
10	0	0	0	0	509	564	0	477	38	8	
11	0	0	0	0	500	564	0	481	39	8	
12	0	0	0	0	502	562	0	475	39	8	
13	0	0	0	0	504	561	0	482	39	8	
14	0	0	0	0	504	560	0	481	39	8	
15	0	0	0	0	502	558	0	497	39	8	
0	0	0	0	0	505	557	0	520	39	8	
1	0	0	0	0	512	556	0	531	38	8	
2	0	0	0	0	505	554	0	547	39	8	
3	0	0	0	0	512	553	0	553	39	8	
4	0	0	0	0	509	551	0	560	39	8	
5	0	0	0	0	503	551	0	573	39	8	
6	0	0	0	0	515	548	0	569	39	8	
7	0	0	0	0	505	546	0	576	39	8	
8	0	0	0	0	511	545	0	570	39	8	
9	0	0	0	0	502	543	0	567	38	8	
10	0	0	0	0	498	542	0	576	39	8	
11	0	0	0	0	506	539	0	567	38	8	
12	0	0	0	0	509	539	0	560	38	8	
13	0	0	0	0	509	536	0	543	39	8	
14	0	0	0	0	514	536	0	527	38	8	
15	0	0	0	0	507	535	0	515	39	8	
0	0	0	0	0	503	532	0	504	39	8	
1	0	0	0	0	506	532	0	498	38	8	
2	0	0	0	0	520	531	0	486	39	8	
3	0	0	0	0	506	529	0	484	38	8	
4	0	0	0	0	507	528	0	489	39	8	
5	0	0	0	0	504	525	0	482	39	8	
6	0	0	0	0	500	523	0	487	39	8	
7	0	0	0	0	512	520	0	480	39	8	
8	0	0	0	0	510	519	0	483	38	8	
9	0	0	0	0	513	517	0	487	38	8	
10	0	0	0	0	509	514	0	480	39	8	
11	0	0	0	0	497	511	0	487	39	8	
12	0	0	0	0	506	508	0	487	39	8	
13	0	0	0	0	508	505	0	490	39	8	
14	0	0	0	0	511	503	0	494	39	8	
15	0	0	0	0	503	500	0	496	39	8	
0	0	0	0	0	511	499	0	497	39	8	
1	0	0	0	0	510	496	0	488	38	8	
2	0	0	0	0	508	494	0	495	38	8	
3	0	0	0	0	507	493	0	494	39	8	
4	0	0	0	0	505	490	0	492	39	8	
5	0	0	0	0	503	487	0	495	39	8	
6	0	0	0	0	511	485	0	495	39	8	
7	0	0	0	0	516	483	0	493	38	8	
8	0	0	0	0	511	481	0	505	39	8	
9	0	0	0	0	504	479	0	525	38	8	
10	0	0	0	0	503	476	0	535	39	8	
11	0	0	0	0	503	474	0	562	38	8	
12	0	0	0	0	511	473	0	567	38	8	
13	0	0	0	0	510	472	0	575	39	8	
14	0	0	0	0	502	471	0	590	39	8	
15	0	0	0	0	508	470	0	584	39	8	
0	0	0	0	0	500	468	0	587	38	8	
1	0	0	0	0	513	467	0	583	38	8	
2	0	0	0	0	508	467	0	581	38	8	
3	0	0	0	0	507	467	0	588	39	8	
4	0	0	0	0	503	467	0	581	39	8	
5	0	0	0	0	511	466	0	574	39	8	
6	0	0	0	0	512	465	0	578	39	8	
7	0	0	0	0	503	465	0	584	39	8	
8	0	0	0	0	510	462	0	572	38	8	
9	0	0	0	0	507	463	0	565	38	8	
10	0	0	0	0	508	462	0	551	39	8	
11	0	0	0	0	512	462	0	537	38	8	
12	0	0	0	0	505	462	0	527	39	8	
13	0	0	0	0	500	462	0	519	39	8	
14	0	0	0	0	506	461	0	512	39	8	
15	0	0	0	0	508	461	0	507	38	8	
0	0	0	0	0	507	461	0	500	38	8	
1	0	0	0	0	502	461	0	499	38	8	
2	0	0	0	0	499	461	0	497	39	8	
3	0	0	0	0	508	461	0	497	39	8	
4	0	0	0	0	510	460	0	498	38	8	
5	0	0	0	0	509	460	0	500	39	8	
6	0	0	0	0	506	460	0	503	39	8	
7	0	0	0	0	514	460	0	501	39	8	
8	0	0	0	0	512	461	0	500	39	8	
9	0	0	0	0	514	461	0	501	38	8	
10	0	0	0	0	509	461	0	495	38	8	
11	0	0	0	0	508	463	0	499	39	8	
12	0	0	0	0	507	462	0	497	39	8	
13	0	0	0	0	506	462	0	500	39	8	
14	0	0	0	0	511	463	0	502	38	8	
15	0	0	0	0	508	463	0	498	38	8	
0	0	0	0	0	507	463	0	498	39	8	
1	0	0	0	0	506	463	0	493	38	8	
2	0	0	0	0	497	463	0	496	39	8	
3	0	0	0	0	504	464	0	499	38	8	
4	0	0	0	0	510	464	0	500	38	8	
5	0	0	0	0	512	465	0	516	39	8	
6	0	0	0	0	508	466	0	541	38	8	
7	0	0	0	0	510	466	0	551	39	8	
8	0	0	0	0	510	466	0	569	38	8	
9	0	0	0	0	513	466	0	574	38	8	
10	0	0	0	0	506	467	0	581	38	8	
11	0	0	0	0	499	467	0	591	39	8	
12	0	0	0	0	508	468	0	588	39	8	
13	0	0	0	0	507	467	0	596	39	8	
14	0	0	0	0	513	467	0	594	38	8	
15	0	0	0	0	517	468	0	593	39	8	
0	0	0	0	0	499	468	0	595	38	8	
1	0	0	0	0	508	469	0	583	38	8	
2	0	0	0	0	505	468	0	571	39	8	
3	0	0	0	0	509	469	0	551	38	8	
4	0	0	0	0	504	470	0	548	39	8	
5	0	0	0	0	508	469	0	526	39	8	
6	0	0	0	0	499	469	0	517	39	8	
7	0	0	0	0	508	470	0	508	39	8	
8	0	0	0	0	504	470	0	503	38	8	
9	0	0	0	0	515	472	0	501	38	8	
10	0	0	0	0	495	471	0	495	39	8	
11	0	0	0	0	506	470	0	504	39	8	
12	0	0	0	0	511	468	0	493	39	8	
13	0	0	0	0	518	466	0	494	39	8	
14	0	0	0	0	513	465	0	494	39	8	
15	0	0	0	0	499	462	0	490	39	8	
0	0	0	0	0	505	460	0	490	39	8	
1	0	0	0	0	510	456	0	478	38	8	
2	0	0	0	0	513	452	0	481	38	8	
3	0	0	0	0	511	450	0	484	39	8	
4	0	0	0	0	499	446	0	480	39	8	
5	0	0	0	0	502	443	0	489	39	8	
6	0	0	0	0	511	439	0	484	39	8	
7	0	0	0	0	514	435	0	482	38	8	
8	0	0	0	0	509	433	0	482	39	8	
9	0	0	0	0	497	430	0	478	38	8	
10	0	0	0	0	499	426	0	482	39	8	
11	0	0	0	0	510	423	0	480	38	8	
12	0	0	0	0	513	419	0	485	38	8	
13	0	0	0	0	513	417	0	491	39	8	
14	0	0	0	0	516	413	0	494	38	8	
15	0	0	0	0	504	410	0	517	39	8	
0	0	0	0	0	511	407	0	529	39	8	
1	0	0	0	0	508	404	0	542	38	8	
2	0	0	0	0	497	401	0	561	39	8	
3	0	0	0	0	515	398	0	563	38	8	
4	0	0	0	0	504	395	0	572	39	8	
5	0	0	0	0	514	392	0	570	39	8	
6	0	0	0	0	503	389	0	571	38	8	
7	0	0	0	0	502	386	0	577	39	8	
8	0	0	0	0	513	384	0	568	39	8	
9	0	0	0	0	512	381	0	575	38	8	
10	0	0	0	0	519	379	0	569	39	8	
11	0	0	0	0	496	376	0	565	38	8	
12	0	0	0	0	504	375	0	551	39	8	
13	0	0	0	0	509	373	0	536	39	8	
14	0	0	0	0	507	371	0	519	38	8	
15	0	0	0	0	508	371	0	507	38	8	
0	0	0	0	0	509	370	0	496	38	8	
1	0	0	0	0	512	369	0	499	38	8	
2	0	0	0	0	503	368	0	519	39	8	
3	0	0	0	0	507	368	0	527	39	8	
4	0	0	0	0	510	367	0	533	39	8	
5	0	0	0	0	508	366	0	543	39	8	
6	0	0	0	0	500	365	0	560	39	8	
7	0	0	0	0	511	364	0	555	38	8	
8	0	0	0	0	504	364	0	550	38	8	
9	0	0	0	0	516	364	0	537	38	8	
10	0	0	0	0	506	364	0	520	38	8	
11	0	0	0	0	506	364	0	508	39	8	
12	0	0	0	0	498	362	0	496	39	8	
13	0	0	0	0	512	361	0	492	39	8	
14	0	0	0	0	514	360	0	483	38	8	
15	0	0	0	0	510	359	0	480	38	8	
0	0	0	0	0	512	358	0	498	39	8	
1	0	0	0	0	503	356	0	470	38	8	
2	0	0	0	0	499	355	0	473	39	8	
3	0	0	0	0	505	354	0	470	38	8	
4	0	0	0	0	508	353	0	476	38	8	
5	0	0	0	0	510	352	0	481	39	8	
6	0	0	0	0	507	349	0	477	38	8	
7	0	0	0	0	512	348	0	483	39	8	
8	0	0	0	0	505	347	0	474	39	8	
9	0	0	0	0	508	346	0	475	38	8	
10	0	0	0	0	516	344	0	480	39	8	
11	0	0	0	0	500	345	0	472	38	8	
12	0	0	0	0	509	347	0	477	39	8	
13	0	0	0	0	512	349	0	475	39	8	
14	0	0	0	0	513	352	0	479	38	8	
15	0	0	0	0	506	356	0	481	39	8	
0	0	0	0	0	504	359	0	473	39	8	
1	0	0	0	0	511	365	0	480	38	8	
2	0	0	0	0	507	369	0	472	38	8	
3	0	0	0	0	505	374	0	477	38	8	
4	0	0	0	0	503	378	0	491	39	8	
5	0	0	0	0	502	383	0	517	39	8	
6	0	0	0	0	505	387	0	529	39	8	
7	0	0	0	0	503	392	0	547	39	8	
8	0	0	0	0	509	397	0	564	39	8	
9	0	0	0	0	508	401	0	558	38	8	
10	0	0	0	0	506	406	0	567	39	8	
11	0	0	0	0	505	409	0	561	39	8	
12	0	0	0	0	508	411	0	567	38	8	
13	0	0	0	0	506	413	0	574	39	8	
14	0	0	0	0	508	414	0	568	39	8	
15	0	0	0	0	502	415	0	576	39	8	
0	0	0	0	0	501	415	0	568	39	8	
1	0	0	0	0	511	416	0	559	38	8	
2	0	0	0	0	517	416	0	542	38	8	
3	0	0	0	0	503	417	0	532	39	8	
4	0	0	0	0	505	417	0	521	39	8	
5	0	0	0	0	509	418	0	512	39	8	
6	0	0	0	0	514	418	0	505	39	8	
7	0	0	0	0	511	418	0	502	38	8	
8	0	0	0	0	504	419	0	496	39	8	
9	0	0	0	0	507	418	0	485	38	8	
10	0	0	0	0	505	419	0	487	39	8	
11	0	0	0	0	505	420	0	482	38	8	
12	0	0	0	0	510	423	0	482	38	8	
13	0	0	0	0	505	426	0	487	39	8	
14	0	0	0	0	511	429	0	483	38	8	
15	0	0	0	0	511	432	0	489	38	8	
0	0	0	0	0	509	436	0	482	38	8	
1	0	0	0	0	511	441	0	483	38	8	
2	0	0	0	0	510	446	0	487	39	8	
3	0	0	0	0	502	450	0	481	38	8	
4	0	0	0	0	501	455	0	486	38	8	
5	0	0	0	0	512	460	0	484	39	8	
6	0	0	0	0	508	464	0	483	38	8	
7	0	0	0	0	504	470	0	485	39	8	
8	0	0	0	0	505	473	0	476	39	8	
9	0	0	0	0	504	478	0	481	38	8	
10	0	0	0	0	502	483	0	477	38	8	
11	0	0	0	0	501	487	0	481	38	8	
12	0	0	0	0	509	493	0	486	39	8	
13	0	0	0	0	508	496	0	484	39	8	
14	0	0	0	0	506	501	0	489	39	8	
15	0	0	0	0	511	505	0	489	39	8	
0	0	0	0	0	508	510	0	491	38	8	
1	0	0	0	0	508	515	0	491	38	8	
2	0	0	0	0	497	518	0	484	39	8	
3	0	0	0	0	505	523	0	489	38	8	
4	0	0	0	0	513	527	0	486	38	8	
5	0	0	0	0	508	532	0	489	39	8	
6	0	0	0	0	510	537	0	492	39	8	
7	0	0	0	0	503	540	0	492	39	8	
8	0	0	0	0	508	544	0	495	39	8	
9	0	0	0	0	515	549	0	484	38	8	
10	0	0	0	0	513	553	0	506	39	8	
11	0	0	0	0	507	557	0	532	39	8	
12	0	0	0	0	507	561	0	544	39	8	
13	0	0	0	0	503	565	0	560	39	8	
14	0	0	0	0	515	569	0	567	39	8	
15	0	0	0	0	504	573	0	571	39	8	
0	0	0	0	0	513	577	0	576	39	8	
1	0	0	0	0	508	580	0	565	38	8	
2	0	0	0	0	503	583	0	576	39	8	
3	0	0	0	0	510	588	0	575	39	8	
4	0	0	0	0	505	591	0	579	39	8	
5	0	0	0	0	511	595	0	587	39	8	
6	0	0	0	0	514	598	0	587	39	8	
7	0	0	0	0	503	600	0	584	39	8	
8	0	0	0	0	510	604	0	578	39	8	
9	0	0	0	0	510	607	0	575	38	8	
10	0	0	0	0	498	611	0	592	39	8	
11	0	0	0	0	516	611	0	576	39	8	
12	0	0	0	0	504	615	0	566	38	8	
13	0	0	0	0	509	615	0	547	39	8	
14	0	0	0	0	500	617	0	533	38	8	
15	0	0	0	0	504	619	0	520	39	8	
0	0	0	0	0	508	618	0	508	38	8	
1	0	0	0	0	504	619	0	503	38	8	
2	0	0	0	0	507	619	0	495	39	8	
3	0	0	0	0	518	618	0	494	38	8	
4	0	0	0	0	504	619	0	496	39	8	
5	0	0	0	0	508	618	0	494	39	8	
6	0	0	0	0	506	619	0	496	39	8	
7	0	0	0	0	512	618	0	493	39	8	
8	0	0	0	0	504	618	0	494	38	8	
9	0	0	0	0	505	619	0	494	38	8	
10	0	0	0	0	507	617	0	489	39	8	
11	0	0	0	0	503	617	0	493	39	8	
12	0	0	0	0	507	617	0	494	38	8	
13	0	0	0	0	514	616	0	499	39	8	
14	0	0	0	0	520	617	0	503	39	8	
15	0	0	0	0	512	615	0	504	39	8	
0	0	0	0	0	508	616	0	503	39	8	
1	0	0	0	0	509	615	0	496	38	8	
2	0	0	0	0	509	615	0	498	39	8	
3	0	0	0	0	508	616	0	501	39	8	
4	0	0	0	0	499	615	0	497	39	8	
5	0	0	0	0	500	614	0	500	39	8	
6	0	0	0	0	518	614	0	501	39	8	
7	0	0	0	0	511	613	0	499	38	8	
8	0	0	0	0	504	613	0	510	39	8	
9	0	0	0	0	501	613	0	530	38	8	
10	0	0	0	0	504	612	0	541	39	8	
11	0	0	0	0	507	611	0	559	38	8	
12	0	0	0	0	507	611	0	573	38	8	
13	0	0	0	0	508	611	0	580	39	8	
14	0	0	0	0	495	611	0	601	39	8	
15	0	0	0	0	506	611	0	587	39	8	
0	0	0	0	0	507	609	0	592	38	8	
1	0	0	0	0	509	608	0	586	38	8	
2	0	0	0	0	512	608	0	601	39	8	
3	0	0	0	0	504	608	0	591	38	8	
4	0	0	0	0	507	607	0	585	39	8	
5	0	0	0	0	507	606	0	578	39	8	
6	0	0	0	0	508	606	0	579	38	8	
7	0	0	0	0	504	605	0	585	39	8	
8	0	0	0	0	514	603	0	573	38	8	
9	0	0	0	0	503	605	0	566	38	8	
10	0	0	0	0	511	604	0	562	39	8	
11	0	0	0	0	506	604	0	534	38	8	
12	0	0	0	0	512	604	0	527	39	8	
13	0	0	0	0	507	603	0	515	39	8	
14	0	0	0	0	510	603	0	520	38	8	
15	0	0	0	0	505	603	0	505	38	8	
0	0	0	0	0	508	602	0	508	38	8	
1	0	0	0	0	502	603	0	497	38	8	
2	0	0	0	0	505	603	0	496	39	8	
3	0	0	0	0	500	603	0	496	39	8	
4	0	0	0	0	511	603	0	497	39	8	
5	0	0	0	0	516	601	0	496	39	8	
6	0	0	0	0	509	603	0	503	39	8	
7	0	0	0	0	506	601	0	500	38	8	
8	0	0	0	0	499	602	0	501	39	8	
9	0	0	0	0	514	603	0	489	38	8	
10	0	0	0	0	503	601	0	492	38	8	
11	0	0	0	0	508	603	0	495	39	8	
12	0	0	0	0	506	601	0	496	39	8	
13	0	0	0	0	511	601	0	496	39	8	
14	0	0	0	0	509	602	0	504	39	8	
15	0	0	0	0	503	601	0	495	39	8	
0	0	0	0	0	505	602	0	500	39	8	
1	0	0	0	0	502	601	0	493	38	8	
2	0	0	0	0	499	601	0	498	39	8	
3	0	0	0	0	507	601	0	496	39	8	
4	0	0	0	0	509	600	0	511	38	8	
5	0	0	0	0	513	600	0	514	39	8	
6	0	0	0	0	506	601	0	544	39	8	
7	0	0	0	0	513	600	0	551	39	8	
8	0	0	0	0	508	600	0	572	39	8	
9	0	0	0	0	517	599	0	573	38	8	
10	0	0	0	0	501	599	0	592	39	8	
11	0	0	0	0	496	598	0	587	39	8	
12	0	0	0	0	509	597	0	588	39	8	
13	0	0	0	0	506	596	0	588	39	8	
14	0	0	0	0	499	595	0	588	39	8	
15	0	0	0	0	509	596	0	587	39	8	
0	0	0	0	0	502	595	0	590	39	8	
1	0	0	0	0	513	596	0	578	38	8	
2	0	0	0	0	512	595	0	567	39	8	
3	0	0	0	0	510	594	0	549	38	8	
4	0	0	0	0	510	594	0	538	39	8	
5	0	0	0	0	505	593	0	522	39	8	
6	0	0	0	0	510	592	0	513	39	8	
7	0	0	0	0	519	592	0	502	38	8	
8	0	0	0	0	507	591	0	495	39	8	
9	0	0	0	0	499	591	0	490	38	8	
10	0	0	0	0	514	589	0	496	39	8	
11	0	0	0	0	514	589	0	520	39	8	
12	0	0	0	0	512	588	0	539	39	8	
13	0	0	0	0	505	587	0	551	39	8	
14	0	0	0	0	508	585	0	565	39	8	
15	0	0	0	0	509	583	0	559	39	8	
0	0	0	0	0	505	584	0	560	39	8	
1	0	0	0	0	508	582	0	541	38	8	
2	0	0	0	0	502	582	0	538	38	8	
3	0	0	0	0	504	582	0	512	39	8	
4	0	0	0	0	509	579	0	504	39	8	
5	0	0	0	0	508	579	0	497	39	8	
6	0	0	0	0	508	578	0	491	38	8	
7	0	0	0	0	508	576	0	487	38	8	
8	0	0	0	0	505	577	0	489	39	8	
9	0	0	0	0	501	575	0	473	38	8	
10	0	0	0	0	500	574	0	476	39	8	
11	0	0	0	0	514	574	0	474	38	8	
12	0	0	0	0	511	571	0	479	38	8	
13	0	0	0	0	512	572	0	485	39	8	
14	0	0	0	0	507	569	0	482	38	8	
15	0	0	0	0	505	568	0	488	39	8	
0	0	0	0	0	512	567	0	481	38	8	
1	0	0	0	0	506	565	0	480	38	8	
2	0	0	0	0	505	565	0	483	39	8	
3	0	0	0	0	504	563	0	481	39	8	
4	0	0	0	0	510	562	0	488	38	8	
5	0	0	0	0	510	561	0	488	39	8	
6	0	0	0	0	502	559	0	488	38	8	
7	0	0	0	0	506	558	0	491	39	8	
8	0	0	0	0	505	556	0	484	39	8	
9	0	0	0	0	506	555	0	485	38	8	
10	0	0	0	0	505	553	0	479	38	8	
11	0	0	0	0	514	552	0	480	38	8	
12	0	0	0	0	510	550	0	496	39	8	
13	0	0	0	0	494	549	0	524	39	8	
14	0	0	0	0	513	548	0	537	39	8	
15	0	0	0	0	506	546	0	552	39	8	
0	0	0	0	0	510	545	0	559	38	8	
1	0	0	0	0	515	543	0	561	38	8	
2	0	0	0	0	497	542	0	569	39	8	
3	0	0	0	0	505	541	0	563	39	8	
4	0	0	0	0	518	539	0	566	38	8	
5	0	0	0	0	504	537	0	567	39	8	
6	0	0	0	0	514	536	0	565	39	8	
7	0	0	0	0	500	536	0	571	39	8	
8	0	0	0	0	505	534	0	561	39	8	
9	0	0	0	0	515	532	0	551	38	8	
10	0	0	0	0	507	531	0	532	38	8	
11	0	0	0	0	507	530	0	519	39	8	
12	0	0	0	0	510	527	0	508	39	8	
13	0	0	0	0	512	525	0	498	39	8	
14	0	0	0	0	506	523	0	488	39	8	
15	0	0	0	0	513	521	0	484	38	8	
0	0	0	0	0	510	519	0	479	39	8	
1	0	0	0	0	498	516	0	466	38	8	
2	0	0	0	0	504	514	0	471	39	8	
3	0	0	0	0	506	511	0	468	39	8	
4	0	0	0	0	511	508	0	470	38	8	
5	0	0	0	0	508	507	0	476	39	8	
6	0	0	0	0	507	504	0	469	39	8	
7	0	0	0	0	502	501	0	476	39	8	
8	0	0	0	0	511	499	0	469	39	8	
9	0	0	0	0	513	495	0	475	38	8	
10	0	0	0	0	509	494	0	478	39	8	
11	0	0	0	0	497	491	0	475	39	8	
12	0	0	0	0	504	489	0	479	39	8	
13	0	0	0	0	515	487	0	480	39	8	
14	0	0	0	0	504	484	0	480	38	8	
15	0	0	0	0	501	483	0	496	39	8	
0	0	0	0	0	507	480	0	474	39	8	
1	0	0	0	0	505	478	0	479	38	8	
2	0	0	0	0	515	476	0	476	39	8	
3	0	0	0	0	511	473	0	480	38	8	
4	0	0	0	0	511	473	0	489	39	8	
5	0	0	0	0	513	471	0	493	39	8	
6	0	0	0	0	498	470	0	519	39	8	
7	0	0	0	0	512	470	0	536	39	8	
8	0	0	0	0	509	468	0	549	39	8	
9	0	0	0	0	507	468	0	563	38	8	
10	0	0	0	0	510	467	0	563	39	8	
11	0	0	0	0	503	467	0	577	39	8	
12	0	0	0	0	512	467	0	572	39	8	
13	0	0	0	0	510	466	0	574	39	8	
14	0	0	0	0	500	466	0	581	39	8	
15	0	0	0	0	506	465	0	573	39	8	
0	0	0	0	0	508	463	0	578	39	8	
1	0	0	0	0	510	464	0	575	38	8	
2	0	0	0	0	506	463	0	568	39	8	
3	0	0	0	0	508	463	0	554	39	8	
4	0	0	0	0	505	462	0	537	39	8	
5	0	0	0	0	502	463	0	521	39	8	
6	0	0	0	0	506	462	0	510	39	8	
7	0	0	0	0	514	461	0	501	38	8	
8	0	0	0	0	509	461	0	497	39	8	
9	0	0	0	0	509	460	0	488	38	8	
10	0	0	0	0	514	460	0	500	39	8	
11	0	0	0	0	510	460	0	485	39	8	
12	0	0	0	0	511	460	0	489	38	8	
13	0	0	0	0	505	461	0	493	39	8	
14	0	0	0	0	504	461	0	490	38	8	
15	0	0	0	0	504	461	0	494	39	8	
0	0	0	0	0	518	462	0	487	38	8	
1	0	0	0	0	500	462	0	486	38	8	
2	0	0	0	0	507	463	0	488	39	8	
3	0	0	0	0	505	463	0	487	39	8	
4	0	0	0	0	507	463	0	491	39	8	
5	0	0	0	0	504	463	0	489	39	8	
6	0	0	0	0	505	463	0	490	38	8	
7	0	0	0	0	503	464	0	494	39	8	
8	0	0	0	0	508	463	0	487	39	8	
9	0	0	0	0	504	464	0	490	38	8	
10	0	0	0	0	513	464	0	483	38	8	
11	0	0	0	0	505	463	0	485	38	8	
12	0	0	0	0	504	465	0	492	39	8	
13	0	0	0	0	503	464	0	489	39	8	
14	0	0	0	0	508	465	0	496	39	8	
15	0	0	0	0	513	465	0	515	38	8	
0	0	0	0	0	518	466	0	531	38	8	
1	0	0	0	0	510	466	0	541	38	8	
2	0	0	0	0	497	467	0	566	39	8	
3	0	0	0	0	502	467	0	572	39	8	
4	0	0	0	0	510	467	0	580	38	8	
5	0	0	0	0	506	467	0	584	39	8	
6	0	0	0	0	510	467	0	583	39	8	
7	0	0	0	0	508	468	0	592	39	8	
8	0	0	0	0	507	469	0	582	39	8	
9	0	0	0	0	502	469	0	586	38	8	
10	0	0	0	0	508	469	0	582	38	8	
11	0	0	0	0	503	470	0	580	39	8	
12	0	0	0	0	504	470	0	565	39	8	
13	0	0	0	0	508	471	0	549	39	8	
14	0	0	0	0	514	470	0	534	39	8	
15	0	0	0	0	512	471	0	525	39	8	
0	0	0	0	0	504	472	0	513	39	8	
1	0	0	0	0	505	472	0	504	38	8	
2	0	0	0	0	511	472	0	498	39	8	
3	0	0	0	0	507	472	0	494	39	8	
4	0	0	0	0	505	470	0	495	38	8	
5	0	0	0	0	507	469	0	498	39	8	
6	0	0	0	0	505	466	0	495	39	8	
7	0	0	0	0	512	463	0	499	38	8	
8	0	0	0	0	517	460	0	491	39	8	
9	0	0	0	0	510	457	0	490	38	8	
10	0	0	0	0	505	454	0	495	39	8	
11	0	0	0	0	502	450	0	497	39	8	
12	0	0	0	0	504	447	0	501	39	8	
13	0	0	0	0	510	443	0	501	39	8	
14	0	0	0	0	519	440	0	501	38	8	
15	0	0	0	0	509	437	0	502	39	8	
0	0	0	0	0	503	433	0	495	39	8	
1	0	0	0	0	503	430	0	496	38	8	
2	0	0	0	0	511	427	0	492	39	8	
3	0	0	0	0	507	423	0	496	38	8	
4	0	0	0	0	503	420	0	499	39	8	
5	0	0	0	0	503	416	0	500	39	8	
6	0	0	0	0	505	413	0	504	39	8	
7	0	0	0	0	510	409	0	504	39	8	
8	0	0	0	0	504	407	0	502	38	8	
9	0	0	0	0	509	404	0	501	38	8	
10	0	0	0	0	508	401	0	501	39	8	
11	0	0	0	0	503	398	0	503	39	8	
12	0	0	0	0	513	396	0	504	38	8	
13	0	0	0	0	509	392	0	508	39	8	
14	0	0	0	0	507	390	0	509	39	8	
15	0	0	0	0	513	387	0	510	39	8	
0	0	0	0	0	508	385	0	505	39	8	
1	0	0	0	0	512	382	0	500	38	8	
2	0	0	0	0	511	380	0	501	38	8	
3	0	0	0	0	502	377	0	503	39	8	
4	0	0	0	0	504	375	0	502	39	8	
5	0	0	0	0	508	374	0	504	39	8	
6	0	0	0	0	511	372	0	504	38	8	
7	0	0	0	0	513	371	0	503	38	8	
8	0	0	0	0	512	370	0	502	39	8	
9	0	0	0	0	505	369	0	499	38	8	
10	0	0	0	0	508	369	0	500	38	8	
11	0	0	0	0	506	368	0	504	38	8	
12	0	0	0	0	504	367	0	508	38	8	
13	0	0	0	0	500	367	0	510	39	8	
14	0	0	0	0	507	365	0	512	39	8	
15	0	0	0	0	509	365	0	510	39	8	
0	0	0	0	0	509	364	0	507	39	8	
1	0	0	0	0	501	363	0	506	38	8	
2	0	0	0	0	505	363	0	506	39	8	
3	0	0	0	0	503	362	0	506	39	8	
4	0	0	0	0	505	361	0	509	39	8	
5	0	0	0	0	512	359	0	510	39	8	
6	0	0	0	0	509	359	0	510	38	8	
7	0	0	0	0	508	358	0	520	39	8	
8	0	0	0	0	507	358	0	540	38	8	
9	0	0	0	0	514	356	0	547	38	8	
10	0	0	0	0	512	355	0	566	39	8	
11	0	0	0	0	509	353	0	575	38	8	
12	0	0	0	0	505	352	0	585	38	8	
13	0	0	0	0	500	351	0	594	39	8	
14	0	0	0	0	511	349	0	591	39	8	
15	0	0	0	0	504	348	0	595	38	8	
0	0	0	0	0	511	347	0	592	39	8	
1	0	0	0	0	509	345	0	588	38	8	
2	0	0	0	0	500	345	0	599	39	8	
3	0	0	0	0	504	345	0	591	39	8	
4	0	0	0	0	502	347	0	595	38	8	
5	0	0	0	0	510	350	0	592	39	8	
6	0	0	0	0	508	353	0	591	39	8	
7	0	0	0	0	504	357	0	599	39	8	
8	0	0	0	0	506	361	0	589	39	8	
9	0	0	0	0	509	365	0	591	38	8	
10	0	0	0	0	510	369	0	588	38	8	
11	0	0	0	0	506	374	0	586	39	8	
12	0	0	0	0	502	379	0	593	39	8	
13	0	0	0	0	502	384	0	587	39	8	
14	0	0	0	0	507	388	0	592	38	8	
15	0	0	0	0	508	393	0	588	39	8	
0	0	0	0	0	511	398	0	588	39	8	
1	0	0	0	0	502	402	0	591	38	8	
2	0	0	0	0	505	407	0	584	39	9	
3	0	0	0	0	512	410	0	577	39	8	
4	0	0	0	0	506	412	0	561	38	8	
5	0	0	0	0	505	415	0	548	39	8	
6	0	0	0	0	505	415	0	539	39	8	
7	0	0	0	0	503	417	0	527	39	8	
8	0	0	0	0	511	418	0	523	39	8	
9	0	0	0	0	503	419	0	515	38	8	
10	0	0	0	0	508	419	0	513	39	8	
11	0	0	0	0	504	420	0	510	39	8	
12	0	0	0	0	507	420	0	508	39	8	
13	0	0	0	0	510	420	0	506	39	8	
14	0	0	0	0	507	419	0	504	38	8	
15	0	0	0	0	511	420	0	506	39	8	
0	0	0	0	0	508	419	0	497	39	8	
1	0	0	0	0	508	420	0	497	38	8	
2	0	0	0	0	512	419	0	491	38	9	
3	0	0	0	0	510	421	0	492	38	8	
4	0	0	0	0	499	423	0	496	39	8	
5	0	0	0	0	510	426	0	497	39	8	
6	0	0	0	0	510	430	0	497	39	8	
7	0	0	0	0	515	433	0	498	39	8	
8	0	0	0	0	501	438	0	497	39	8	
9	0	0	0	0	506	442	0	494	38	8	
10	0	0	0	0	512	446	0	489	39	8	
11	0	0	0	0	503	450	0	490	39	8	
12	0	0	0	0	511	454	0	491	38	8	
13	0	0	0	0	509	458	0	491	39	8	
14	0	0	0	0	501	463	0	496	39	8	
15	0	0	0	0	509	467	0	501	38	8	
0	0	0	0	0	508	472	0	523	39	8	
1	0	0	0	0	523	477	0	534	38	8	
2	0	0	0	0	504	481	0	549	38	8	
3	0	0	0	0	505	486	0	561	39	9	
4	0	0	0	0	506	491	0	564	38	8	
5	0	0	0	0	505	495	0	573	39	8	
6	0	0	0	0	511	500	0	572	39	8	
7	0	0	0	0	504	504	0	574	39	8	
8	0	0	0	0	511	510	0	579	39	8	
9	0	0	0	0	512	514	0	567	38	8	
10	0	0	0	0	512	518	0	575	39	8	
11	0	0	0	0	508	523	0	570	39	8	
12	0	0	0	0	496	527	0	565	38	8	
13	0	0	0	0	509	532	0	559	39	8	
14	0	0	0	0	505	536	0	544	39	8	
15	0	0	0	0	499	541	0	530	39	8	
0	0	0	0	0	510	544	0	537	39	8	
1	0	0	0	0	514	548	0	537	38	8	
2	0	0	0	0	507	553	0	544	39	8	
3	0	0	0	0	505	557	0	535	39	8	
4	0	0	0	0	500	561	0	523	38	8	
5	0	0	0	0	510	564	0	512	39	8	
6	0	0	0	0	503	568	0	502	38	8	
7	0	0	0	0	507	573	0	496	39	8	
8	0	0	0	0	503	575	0	484	38	8	
9	0	0	0	0	508	579	0	485	38	8	
10	0	0	0	0	516	583	0	473	38	8	
11	0	0	0	0	513	586	0	474	38	8	
12	0	0	0	0	507	591	0	477	39	9	
13	0	0	0	0	509	592	0	472	39	8	
14	0	0	0	0	499	596	0	479	39	8	
15	0	0	0	0	509	600	0	473	38	8	
0	0	0	0	0	514	603	0	474	38	8	
1	0	0	0	0	510	607	0	473	38	8	
2	0	0	0	0	496	610	0	466	39	8	
3	0	0	0	0	501	612	0	473	39	8	
4	0	0	0	0	509	614	0	471	38	9	
5	0	0	0	0	510	615	0	474	39	8	
6	0	0	0	0	515	617	0	478	39	8	
7	0	0	0	0	506	616	0	473	39	8	
8	0	0	0	0	508	617	0	476	39	8	
9	0	0	0	0	512	618	0	469	38	8	
10	0	0	0	0	512	617	0	471	38	8	
11	0	0	0	0	508	619	0	477	39	8	
12	0	0	0	0	503	618	0	473	39	8	
13	0	0	0	0	508	618	0	478	39	8	
14	0	0	0	0	509	618	0	479	39	8	
15	0	0	0	0	497	617	0	494	39	8	
0	0	0	0	0	503	618	0	523	39	8	
1	0	0	0	0	513	617	0	526	38	8	
2	0	0	0	0	509	617	0	543	39	8	
3	0	0	0	0	510	618	0	547	39	8	
4	0	0	0	0	505	617	0	561	39	8	
5	0	0	0	0	504	618	0	566	39	9	
6	0	0	0	0	512	617	0	566	39	8	
7	0	0	0	0	504	615	0	571	39	8	
8	0	0	0	0	507	616	0	566	39	8	
9	0	0	0	0	507	615	0	561	38	8	
10	0	0	0	0	513	616	0	572	39	8	
11	0	0	0	0	503	614	0	563	38	8	
12	0	0	0	0	505	615	0	556	38	8	
13	0	0	0	0	512	614	0	537	39	8	
14	0	0	0	0	515	614	0	524	38	8	
15	0	0	0	0	503	614	0	510	39	8	
0	0	0	0	0	502	613	0	505	38	8	
1	0	0	0	0	505	613	0	499	38	8	
2	0	0	0	0	510	612	0	495	39	8	
3	0	0	0	0	506	611	0	486	38	8	
4	0	0	0	0	506	611	0	486	39	8	
5	0	0	0	0	502	611	0	480	39	8	
6	0	0	0	0	507	611	0	483	39	9	
7	0	0	0	0	516	611	0	474	38	8	
8	0	0	0	0	512	610	0	475	38	8	
9	0	0	0	0	507	610	0	472	38	8	
10	0	0	0	0	508	609	0	466	39	8	
11	0	0	0	0	498	608	0	472	39	8	
12	0	0	0	0	508	608	0	469	38	8	
13	0	0	0	0	516	607	0	475	39	8	
14	0	0	0	0	508	607	0	478	39	9	
15	0	0	0	0	505	605	0	473	38	8	
0	0	0	0	0	504	606	0	477	39	8	
1	0	0	0	0	512	605	0	469	38	8	
2	0	0	0	0	512	604	0	473	38	8	
3	0	0	0	0	504	604	0	478	39	8	
4	0	0	0	0	503	604	0	472	39	8	
5	0	0	0	0	512	603	0	478	39	8	
6	0	0	0	0	512	603	0	478	38	9	
7	0	0	0	0	505	602	0	476	39	8	
8	0	0	0	0	509	603	0	487	39	8	
9	0	0	0	0	501	602	0	507	38	8	
10	0	0	0	0	508	603	0	519	39	8	
11	0	0	0	0	503	602	0	535	38	8	
12	0	0	0	0	511	602	0	550	38	8	
13	0	0	0	0	512	603	0	557	39	8	
14	0	0	0	0	497	603	0	574	39	8	
15	0	0	0	0	507	603	0	571	39	9	
0	0	0	0	0	505	602	0	575	38	8	
1	0	0	0	0	513	601	0	571	38	8	
2	0	0	0	0	509	602	0	569	39	8	
3	0	0	0	0	498	603	0	577	39	8	
4	0	0	0	0	505	603	0	569	39	8	
5	0	0	0	0	516	602	0	561	39	8	
6	0	0	0	0	510	602	0	564	39	8	
7	0	0	0	0	507	601	0	571	39	9	
8	0	0	0	0	507	599	0	560	39	8	
9	0	0	0	0	503	600	0	553	38	8	
10	0	0	0	0	504	600	0	539	39	8	
11	0	0	0	0	511	600	0	526	38	8	
12	0	0	0	0	512	601	0	513	39	8	
13	0	0	0	0	505	600	0	502	39	8	
14	0	0	0	0	502	600	0	497	39	8	
15	0	0	0	0	513	599	0	490	38	9	
0	0	0	0	0	505	598	0	489	38	8	
1	0	0	0	0	508	599	0	491	38	8	
2	0	0	0	0	504	598	0	487	39	8	
3	0	0	0	0	503	597	0	492	38	8	
4	0	0	0	0	509	597	0	487	38	8	
5	0	0	0	0	516	595	0	489	39	8	
6	0	0	0	0	508	595	0	493	39	8	
7	0	0	0	0	505	594	0	495	38	8	
8	0	0	0	0	506	595	0	494	39	9	
9	0	0	0	0	511	594	0	493	38	8	
10	0	0	0	0	502	593	0	487	38	8	
11	0	0	0	0	498	595	0	490	39	8	
12	0	0	0	0	505	592	0	487	39	8	
13	0	0	0	0	508	592	0	504	39	8	
14	0	0	0	0	513	592	0	491	39	8	
15	0	0	0	0	507	591	0	489	38	8	
0	0	0	0	0	509	592	0	490	39	9	
1	0	0	0	0	509	590	0	484	38	8	
2	0	0	0	0	508	589	0	488	39	8	
3	0	0	0	0	512	589	0	487	38	8	
4	0	0	0	0	511	588	0	492	38	8	
5	0	0	0	0	511	587	0	506	39	8	
6	0	0	0	0	500	587	0	531	39	8	
7	0	0	0	0	510	586	0	543	39	8	
8	0	0	0	0	507	585	0	558	38	9	
9	0	0	0	0	504	583	0	564	38	8	
10	0	0	0	0	508	583	0	569	39	8	
11	0	0	0	0	501	582	0	582	39	8	
12	0	0	0	0	505	581	0	578	39	8	
13	0	0	0	0	508	580	0	585	39	8	
14	0	0	0	0	508	578	0	587	38	8	
15	0	0	0	0	512	577	0	588	39	8	
0	0	0	0	0	505	576	0	591	38	9	
1	0	0	0	0	509	575	0	580	38	9	
2	0	0	0	0	511	573	0	570	39	8	
3	0	0	0	0	511	572	1	553	38	8	
4	0	0	0	0	500	572	0	541	39	8	
5	0	0	0	0	505	570	0	531	39	8	
6	0	0	0	0	505	568	0	520	39	8	
7	0	0	0	0	512	568	0	513	39	8	
8	0	0	0	0	500	566	0	504	38	8	
9	0	0	0	0	508	567	0	501	38	9	
10	0	0	0	0	510	564	0	496	39	8	
11	0	0	0	0	504	563	0	498	39	8	
12	0	0	0	0	502	562	0	496	38	8	
13	0	0	0	0	513	561	0	498	39	8	
14	0	0	0	0	515	560	0	501	39	8	
15	0	0	0	0	510	557	0	500	38	8	
0	0	0	0	0	508	556	0	501	39	8	
1	0	0	0	0	509	554	0	492	38	9	
2	0	0	0	0	515	552	0	494	38	9	
3	0	0	0	0	504	552	0	498	39	8	
4	0	0	0	0	502	550	0	497	38	8	
5	0	0	0	0	503	549	0	501	39	8	
6	0	0	0	0	511	547	0	500	38	8	
7	0	0	0	0	505	545	0	500	38	8	
8	0	0	0	0	506	545	0	497	39	8	
9	0	0	0	0	503	543	0	493	38	8	
10	0	0	0	0	499	541	0	494	39	9	
11	0	0	0	0	508	539	0	494	38	8	
12	0	0	0	0	516	537	0	497	38	8	
13	0	0	0	0	510	537	0	500	39	8	
14	0	0	0	0	517	535	0	510	38	8	
15	0	0	0	0	505	534	0	532	39	8	
0	0	0	0	0	510	533	0	544	39	8	
1	0	0	0	0	502	531	0	555	38	8	
2	0	0	0	0	505	529	0	576	39	9	
3	0	0	0	0	512	528	0	575	39	8	
4	0	0	0	0	505	526	0	587	39	8	
5	0	0	0	0	511	524	0	586	39	8	
6	0	0	0	0	504	521	0	588	39	8	
7	0	0	0	0	508	519	0	594	39	8	
8	0	0	0	0	510	516	0	584	39	8	
9	0	0	0	0	509	514	0	591	38	8	
10	0	0	0	0	514	512	0	588	39	8	
11	0	0	0	0	503	508	0	580	38	9	
12	0	0	0	0	502	507	0	566	39	8	
13	0	0	0	0	508	505	0	547	39	8	
14	0	0	0	0	510	502	0	535	39	8	
15	0	0	0	0	513	500	0	523	39	8	
0	0	0	0	0	505	496	0	512	39	8	
1	0	0	0	0	503	495	0	505	38	8	
2	0	0	0	0	506	492	0	502	39	8	
3	0	0	0	0	504	490	0	499	39	9	
4	0	0	0	0	513	487	0	497	38	9	
5	0	0	0	0	513	484	0	498	39	8	
6	0	0	0	0	508	482	0	500	39	8	
7	0	0	0	0	504	479	0	500	39	8	
8	0	0	0	0	506	479	0	497	39	8	
9	0	0	0	0	519	476	0	490	38	8	
10	0	0	0	0	510	474	0	492	38	8	
11	0	0	0	0	508	473	0	496	39	9	
12	0	0	0	0	507	472	0	494	39	8	
13	0	0	0	0	510	471	0	498	39	8	
14	0	0	0	0	503	470	0	496	39	8	
15	0	0	0	0	503	468	0	496	38	8	
0	0	0	0	0	508	468	0	495	39	8	
1	0	0	0	0	504	467	0	492	38	8	
2	0	0	0	0	504	466	0	494	39	8	
3	0	0	0	0	518	465	0	492	38	9	
4	0	0	0	0	507	464	0	494	38	9	
5	0	0	0	0	502	464	0	499	39	8	
6	0	0	0	0	508	464	0	498	38	8	
7	0	0	0	0	510	464	0	502	39	8	
8	0	0	0	0	513	463	0	494	38	8	
9	0	0	0	0	511	462	0	494	38	8	
10	0	0	0	0	508	463	0	492	39	8	
11	0	0	0	0	505	462	0	493	39	9	
12	0	0	0	0	496	461	0	494	39	9	
13	0	0	0	0	508	461	0	493	39	9	
14	0	0	0	0	503	461	0	491	38	8	
15	0	0	0	0	517	461	0	496	39	8	
0	0	0	0	0	502	460	0	485	39	8	
1	0	0	0	0	510	460	0	491	38	8	
2	0	0	0	0	512	459	0	482	38	8	
3	0	0	0	0	504	459	0	484	38	8	
4	0	0	0	0	504	459	0	486	39	9	
5	0	0	0	0	505	459	0	490	39	9	
6	0	0	0	0	513	459	0	493	39	8	
7	0	0	0	0	514	460	0	492	38	8	
8	0	0	0	0	510	460	0	487	38	8	
9	0	0	0	0	508	461	0	490	38	8	
10	0	0	0	0	504	461	0	483	38	8	
11	0	0	0	0	504	461	0	493	39	8	
12	0	0	0	0	509	462	0	489	38	9	
13	0	0	0	0	504	462	0	494	39	9	
14	0	0	0	0	509	462	0	495	39	8	
15	0	0	0	0	506	462	0	500	39	8	
0	0	0	0	0	504	463	0	493	39	8	
1	0	0	0	0	510	464	0	492	38	8	
2	0	0	0	0	503	464	0	509	39	8	
3	0	0	0	0	507	465	0	549	39	8	
4	0	0	0	0	514	465	0	547	38	8	
5	0	0	0	0	506	465	0	582	39	8	
6	0	0	0	0	511	466	0	570	39	8	
7	0	0	0	0	507	466	0	591	39	8	
8	0	0	0	0	510	467	0	581	39	8	
9	0	0	0	0	514	467	0	573	38	8	
10	0	0	0	0	504	466	0	578	39	8	
11	0	0	0	0	517	468	0	581	39	8	
12	0	0	0	0	509	468	0	580	38	8	
13	0	0	0	0	510	468	0	583	39	9	
14	0	0	0	0	511	468	0	572	39	8	
15	0	0	0	0	499	468	0	579	39	8	
0	0	0	0	0	507	469	0	571	39	8	
1	0	0	0	0	507	469	0	569	38	8	
2	0	0	0	0	504	469	0	575	39	8	
3	0	0	0	0	510	469	0	570	39	8	
4	0	0	0	0	506	469	0	576	38	8	
5	0	0	0	0	516	470	0	573	39	8	
6	0	0	0	0	511	471	0	572	39	8	
7	0	0	0	0	509	471	0	578	39	8	
8	0	0	0	0	515	471	0	569	39	8	
9	0	0	0	0	498	471	0	578	38	8	
10	0	0	0	0	520	472	0	569	39	8	
11	0	0	0	0	506	471	0	565	38	8	
12	0	0	0	0	511	470	0	548	39	8	
13	0	0	0	0	507	468	0	532	39	8	
14	0	0	0	0	504	466	0	518	38	9	
15	0	0	0	0	508	463	0	507	38	9	
0	0	0	0	0	502	460	0	497	38	8	
1	0	0	0	0	508	457	0	490	38	8	
2	0	0	0	0	505	454	0	483	39	8	
3	0	0	0	0	498	451	0	485	39	8	
4	0	0	0	0	514	447	0	480	38	8	
5	0	0	0	0	511	443	0	481	39	8	
6	0	0	0	0	509	440	0	486	39	9	
7	0	0	0	0	505	436	0	479	39	8	
8	0	0	0	0	504	434	0	482	39	8	
9	0	0	0	0	511	430	0	472	38	8	
10	0	0	0	0	507	427	0	475	38	8	
11	0	0	0	0	504	424	0	481	39	8	
12	0	0	0	0	507	420	0	476	38	8	
13	0	0	0	0	500	417	0	483	39	8	
14	0	0	0	0	508	414	0	482	39	9	
15	0	0	0	0	508	411	0	480	38	9	
0	0	0	0	0	504	408	0	480	39	8	
1	0	0	0	0	504	405	0	473	38	8	
2	0	0	0	0	504	402	0	478	39	8	
3	0	0	0	0	513	399	0	477	38	8	
4	0	0	0	0	510	396	0	483	38	8	
5	0	0	0	0	502	393	0	488	39	8	
6	0	0	0	0	511	391	0	483	39	9	
7	0	0	0	0	506	388	0	488	39	9	
8	0	0	0	0	511	385	0	479	39	8	
9	0	0	0	0	515	383	0	479	38	8	
10	0	0	0	0	513	380	0	493	39	8	
11	0	0	0	0	498	378	0	519	39	8	
12	0	0	0	0	505	376	0	532	39	8	
13	0	0	0	0	503	375	0	551	39	8	
14	0	0	0	0	511	373	0	559	39	8	
15	0	0	0	0	508	372	0	562	39	9	
0	0	0	0	0	497	371	0	570	39	9	
1	0	0	0	0	505	371	0	565	38	8	
2	0	0	0	0	507	369	0	570	38	8	
3	0	0	0	0	514	368	0	571	38	8	
4	0	0	0	0	511	368	0	572	39	8	
5	0	0	0	0	499	368	0	579	39	8	
6	0	0	0	0	509	368	0	572	39	8	
7	0	0	0	0	506	367	0	576	38	9	
8	0	0	0	0	504	366	0	573	39	8	
9	0	0	0	0	502	366	0	567	38	8	
10	0	0	0	0	504	365	0	555	38	8	
11	0	0	0	0	507	364	0	540	39	8	
12	0	0	0	0	508	363	0	529	38	8	
13	0	0	0	0	507	362	0	517	39	8	
14	0	0	0	0	502	361	0	512	39	8	
15	0	0	0	0	512	360	0	507	38	8	
0	0	0	0	0	507	359	0	507	38	9	
1	0	0	0	0	514	357	0	505	38	8	
2	0	0	0	0	505	356	0	503	38	8	
3	0	0	0	0	505	355	0	502	39	8	
4	0	0	0	0	506	353	0	500	39	8	
5	0	0	0	0	508	352	0	501	39	8	
6	0	0	0	0	515	351	0	501	39	8	
7	0	0	0	0	509	349	0	500	39	8	
8	0	0	0	0	506	348	0	501	39	9	
9	0	0	0	0	508	348	0	496	38	8	
10	0	0	0	0	507	347	0	497	39	8	
11	0	0	0	0	513	346	0	498	39	8	
12	0	0	0	0	508	348	0	499	38	8	
13	0	0	0	0	507	351	0	504	39	8	
14	0	0	0	0	511	353	0	500	39	8	
15	0	0	0	0	507	358	0	505	39	8	
0	0	0	0	0	515	362	0	496	38	9	
1	0	0	0	0	511	366	0	496	38	9	
2	0	0	0	0	509	370	0	497	39	8	
3	0	0	0	0	506	374	0	501	39	8	
4	0	0	0	0	509	379	0	502	39	8	
5	0	0	0	0	510	383	0	507	39	8	
6	0	0	0	0	504	388	0	506	38	8	
7	0	0	0	0	514	392	0	507	39	8	
8	0	0	0	0	503	396	0	509	39	8	
9	0	0	0	0	507	400	0	532	38	8	
10	0	0	0	0	513	404	0	550	39	8	
11	0	0	0	0	515	408	0	567	39	8	
12	0	0	0	0	504	411	0	588	39	8	
13	0	0	0	0	512	413	0	586	39	8	
14	0	0	0	0	505	415	0	599	39	8	
15	0	0	0	0	508	416	0	598	39	8	
0	0	0	0	0	505	417	0	599	39	8	
1	0	0	0	0	503	418	0	600	38	9	
2	0	0	0	0	508	419	0	595	39	9	
3	0	0	0	0	505	419	0	599	39	8	
4	0	0	0	0	517	420	0	598	39	8	
5	0	0	0	0	505	419	0	590	39	8	
6	0	0	0	0	515	420	0	589	39	8	
7	0	0	0	0	503	420	0	594	39	8	
8	0	0	0	0	508	420	0	588	39	9	
9	0	0	0	0	510	420	0	577	38	8	
10	0	0	0	0	513	420	0	562	38	9	
11	0	0	0	0	505	421	0	548	39	8	
12	0	0	0	0	507	423	0	537	39	8	
13	0	0	0	0	504	426	0	526	39	8	
14	0	0	0	0	513	430	0	522	38	8	
15	0	0	0	0	513	434	0	514	38	8	
0	0	0	0	0	505	439	0	512	39	8	
1	0	0	0	0	510	443	0	506	38	8	
2	0	0	0	0	496	448	0	502	39	9	
3	0	0	0	0	508	452	0	500	38	9	
4	0	0	0	0	508	456	0	500	38	8	
5	0	0	0	0	513	462	0	502	39	8	
6	0	0	0	0	504	466	0	502	38	8	
7	0	0	0	0	500	471	0	505	38	8	
8	0	0	0	0	513	475	0	496	38	8	
9	0	0	0	0	510	480	0	494	38	8	
10	0	0	0	0	506	486	0	496	39	9	
11	0	0	0	0	501	489	0	494	39	9	
12	0	0	0	0	509	494	0	496	39	8	
13	0	0	0	0	511	499	0	498	39	8	
14	0	0	0	0	505	504	0	499	38	8	
15	0	0	0	0	506	509	0	500	39	8	
0	0	0	0	0	505	512	0	494	39	8	
1	0	0	0	0	504	518	0	494	38	8	
2	0	0	0	0	511	521	0	487	38	9	
3	0	0	0	0	509	525	0	489	38	9	
4	0	0	0	0	508	530	0	495	39	8	
5	0	0	0	0	499	533	0	494	39	8	
6	0	0	0	0	507	538	0	496	39	8	
7	0	0	0	0	519	542	0	493	39	8	
8	0	0	0	0	515	546	0	493	38	8	
9	0	0	0	0	509	551	0	503	38	8	
10	0	0	0	0	508	554	0	487	39	9	
11	0	0	0	0	503	559	0	494	39	9	
12	0	0	0	0	504	563	0	489	39	9	
13	0	0	0	0	511	567	0	494	39	8	
14	0	0	0	0	504	571	0	496	39	8	
15	0	0	0	0	505	573	0	499	39	8	
0	0	0	0	0	501	577	0	496	39	8	
1	0	0	0	0	513	581	0	489	38	8	
2	0	0	0	0	506	584	0	487	38	8	
3	0	0	0	0	510	588	0	495	39	9	
4	0	0	0	0	513	591	0	488	39	9	
5	0	0	0	0	503	595	0	497	39	8	
6	0	0	0	0	504	597	0	517	38	8	
7	0	0	0	0	511	601	0	535	39	8	
8	0	0	0	0	512	604	0	545	39	8	
9	0	0	0	0	499	608	0	567	38	8	
10	0	0	0	0	505	611	0	567	39	8	
11	0	0	0	0	508	613	0	577	38	8	
12	0	0	0	0	509	615	0	575	38	9	
13	0	0	0	0	513	617	0	577	39	8	
14	0	0	0	0	498	618	0	582	39	8	
15	0	0	0	0	508	619	0	574	39	8	
0	0	0	0	0	503	619	0	576	39	8	
1	0	0	0	0	509	619	0	573	38	8	
2	0	0	0	0	509	619	0	571	39	8	
3	0	0	0	0	504	618	0	577	39	9	
4	0	0	0	0	507	619	0	569	39	9	
5	0	0	0	0	508	617	0	572	38	9	
6	0	0	0	0	518	617	0	571	38	8	
7	0	0	0	0	508	618	0	568	38	8	
8	0	0	0	0	496	617	0	571	39	8	
9	0	0	0	0	514	618	0	562	38	9	
10	0	0	0	0	512	616	0	549	39	8	
11	0	0	0	0	510	616	0	531	38	8	
12	0	0	0	0	499	617	0	519	39	9	
13	0	0	0	0	509	615	0	507	39	9	
14	0	0	0	0	504	616	0	499	39	8	
15	0	0	0	0	508	616	0	486	38	8	
0	0	0	0	0	511	615	0	483	38	8	
1	0	0	0	0	509	616	0	482	38	8	
2	0	0	0	0	513	615	0	475	39	8	
3	0	0	0	0	503	615	0	475	39	8	
4	0	0	0	0	507	615	0	471	38	9	
5	0	0	0	0	512	613	0	474	39	9	
6	0	0	0	0	506	615	0	478	39	9	
7	0	0	0	0	511	612	0	475	38	8	
8	0	0	0	0	499	613	0	474	39	8	
9	0	0	0	0	512	612	0	480	38	8	
10	0	0	0	0	512	611	0	469	39	8	
11	0	0	0	0	508	612	0	474	39	8	
12	0	0	0	0	500	611	0	467	39	9	
13	0	0	0	0	512	611	0	473	39	9	
14	0	0	0	0	514	610	0	470	39	9	
15	0	0	0	0	509	609	0	471	39	8	
0	0	0	0	0	500	610	0	485	39	8	
1	0	0	0	0	508	608	0	464	38	8	
2	0	0	0	0	501	609	0	469	39	8	
3	0	0	0	0	507	608	0	463	39	8	
4	0	0	0	0	511	608	0	468	38	8	
5	0	0	0	0	504	608	0	476	39	9	
6	0	0	0	0	511	606	0	476	39	9	
7	0	0	0	0	507	605	0	499	39	8	
8	0	0	0	0	508	604	0	512	39	8	
9	0	0	0	0	509	604	0	526	38	8	
10	0	0	0	0	503	604	0	543	39	8	
11	0	0	0	0	513	603	0	546	38	8	
12	0	0	0	0	505	603	0	555	39	8	
13	0	0	0	0	517	603	0	554	39	9	
14	0	0	0	0	511	603	0	556	38	9	
15	0	0	0	0	505	603	0	563	39	8	
0	0	0	0	0	510	602	0	553	39	8	
1	0	0	0	0	505	602	0	561	38	8	
2	0	0	0	0	508	602	0	555	39	8	
3	0	0	0	0	505	601	0	549	38	8	
4	0	0	0	0	504	603	0	534	39	8	
5	0	0	0	0	508	602	0	518	39	8	
6	0	0	0	0	504	602	0	505	38	9	
7	0	0	0	0	511	601	0	492	39	9	
8	0	0	0	0	509	601	0	498	38	8	
9	0	0	0	0	510	601	0	476	38	8	
10	0	0	0	0	501	600	0	469	39	8	
11	0	0	0	0	504	601	0	471	39	8	
12	0	0	0	0	508	601	0	466	38	8	
13	0	0	0	0	511	601	0	469	39	8	
14	0	0	0	0	511	604	0	473	39	9	
15	0	0	0	0	503	602	0	464	38	8	
0	0	0	0	0	500	603	0	467	39	8	
1	0	0	0	0	512	602	0	457	38	8	
2	0	0	0	0	505	602	0	462	38	8	
3	0	0	0	0	506	603	0	468	39	8	
4	0	0	0	0	518	601	0	462	39	8	
5	0	0	0	0	506	601	0	470	39	8	
6	0	0	0	0	512	601	0	469	38	9	
7	0	0	0	0	508	600	0	470	38	9	
8	0	0	0	0	505	600	0	472	39	9	
9	0	0	0	0	502	598	0	466	38	8	
10	0	0	0	0	493	598	0	474	39	8	
11	0	0	0	0	519	597	0	471	39	8	
12	0	0	0	0	512	596	0	476	38	8	
13	0	0	0	0	511	596	0	482	39	8	
14	0	0	0	0	505	595	0	479	38	8	
15	0	0	0	0	503	596	0	488	39	9	
0	0	0	0	0	504	594	0	502	38	9	
1	0	0	0	0	508	593	0	515	38	8	
2	0	0	0	0	511	593	0	531	39	8	
3	0	0	0	0	502	592	0	555	39	8	
4	0	0	0	0	505	592	0	558	39	8	
5	0	0	0	0	504	591	0	568	39	8	
6	0	0	0	0	504	591	0	570	38	8	
7	0	0	0	0	513	591	0	569	39	9	
8	0	0	0	0	502	590	0	573	39	9	
9	0	0	0	0	509	590	0	567	38	8	
10	0	0	0	0	505	589	0	567	38	8	
11	0	0	0	0	508	588	0	567	39	8	
12	0	0	0	0	501	588	0	563	39	8	
13	0	0	0	0	505	586	0	553	39	8	
14	0	0	0	0	506	585	0	562	39	8	
15	0	0	0	0	518	585	0	559	39	8	
0	0	0	0	0	502	583	0	553	38	9	
1	0	0	0	0	507	583	0	539	39	8	
2	0	0	0	0	507	581	0	522	39	8	
3	0	0	0	0	505	580	0	508	39	8	
4	0	0	0	0	510	579	0	495	39	8	
5	0	0	0	0	507	577	0	490	39	8	
6	0	0	0	0	504	578	0	490	39	8	
7	0	0	0	0	504	575	0	478	39	8	
8	0	0	0	0	508	575	0	477	39	9	
9	0	0	0	0	513	574	0	472	38	9	
10	0	0	0	0	515	572	0	472	38	8	
11	0	0	0	0	507	572	0	479	39	8	
12	0	0	0	0	510	571	0	471	39	8	
13	0	0	0	0	502	570	0	492	39	8	
14	0	0	0	0	509	569	0	475	39	8	
15	0	0	0	0	504	567	0	490	39	8	
0	0	0	0	0	511	567	0	476	39	9	
1	0	0	0	0	508	565	0	470	38	9	
2	0	0	0	0	500	564	0	476	39	8	
3	0	0	0	0	508	563	0	473	38	8	
4	0	0	0	0	503	561	0	477	38	8	
5	0	0	0	0	505	560	0	483	39	8	
6	0	0	0	0	505	559	0	478	38	8	
7	0	0	0	0	503	557	0	482	39	8	
8	0	0	0	0	517	556	0	474	39	9	
9	0	0	0	0	505	555	0	476	38	9	
10	0	0	0	0	504	554	0	480	39	8	
11	0	0	0	0	507	551	0	475	38	8	
12	0	0	0	0	503	550	0	480	39	8	
13	0	0	0	0	512	548	0	482	39	8	
14	0	0	0	0	515	547	0	482	38	8	
15	0	0	0	0	505	547	0	489	39	8	
0	0	0	0	0	507	543	0	481	39	8	
1	0	0	0	0	511	543	0	485	38	9	
2	0	0	0	0	503	541	0	481	38	9	
3	0	0	0	0	502	539	0	483	38	8	
4	0	0	0	0	504	539	0	490	39	8	
5	0	0	0	0	505	536	0	488	39	8	
6	0	0	0	0	506	536	0	495	39	8	
7	0	0	0	0	513	534	0	495	39	8	
8	0	0	0	0	510	532	0	516	39	8	
9	0	0	0	0	507	531	0	535	38	9	
10	0	0	0	0	502	530	0	547	39	9	
11	0	0	0	0	509	528	0	564	39	8	
12	0	0	0	0	514	527	0	567	39	8	
13	0	0	0	0	511	525	0	572	39	8	
14	0	0	0	0	508	523	0	587	39	8	
15	0	0	0	0	515	519	0	580	39	8	
0	0	0	0	0	505	517	0	587	39	8	
1	0	0	0	0	515	514	0	578	38	8	
2	0	0	0	0	513	512	0	577	39	9	
3	0	0	0	0	504	510	0	583	39	8	
4	0	0	0	0	507	507	0	573	38	8	
5	0	0	0	0	504	503	0	582	39	8	
6	0	0	0	0	511	503	0	582	39	8	
7	0	0	0	0	505	499	0	580	39	8	
8	0	0	0	0	505	497	0	580	39	8	
9	0	0	0	0	507	493	0	563	38	8	
10	0	0	0	0	508	493	0	555	39	9	
11	0	0	0	0	510	490	0	539	39	9	
12	0	0	0	0	516	487	0	525	38	8	
13	0	0	0	0	504	486	0	515	39	8	
14	0	0	0	0	505	483	0	508	39	8	
15	0	0	0	0	509	482	0	503	39	8	
0	0	0	0	0	515	480	0	503	39	8	
1	0	0	0	0	511	477	0	519	38	8	
2	0	0	0	0	497	475	0	544	39	9	
3	0	0	0	0	502	472	0	554	39	8	
4	0	0	0	0	512	473	0	556	39	8	
5	0	0	0	0	503	472	0	569	39	8	
6	0	0	0	0	505	471	0	572	39	8	
7	0	0	0	0	505	471	0	575	39	8	
8	0	0	0	0	508	470	0	561	38	8	
9	0	0	0	0	501	469	0	547	38	8	
10	0	0	0	0	513	467	0	531	39	8	
11	0	0	0	0	515	467	0	521	38	9	
12	0	0	0	0	510	467	0	511	39	8	
13	0	0	0	0	506	467	0	506	39	8	
14	0	0	0	0	510	466	0	500	39	8	
15	0	0	0	0	509	465	0	499	39	8	
0	0	0	0	0	508	465	0	496	39	8	
1	0	0	0	0	507	465	0	503	38	8	
2	0	0	0	0	507	463	0	484	38	8	
3	0	0	0	0	506	463	0	504	39	9	
4	0	0	0	0	511	463	0	484	38	9	
5	0	0	0	0	516	463	0	488	39	8	
6	0	0	0	0	500	463	0	490	39	8	
7	0	0	0	0	503	462	0	492	38	8	
8	0	0	0	0	500	462	0	489	39	8	
9	0	0	0	0	516	461	0	486	38	8	
10	0	0	0	0	509	461	0	484	38	8	
11	0	0	0	0	512	462	0	491	39	9	
12	0	0	0	0	503	461	0	485	39	9	
13	0	0	0	0	506	460	0	490	39	8	
14	0	0	0	0	509	460	0	486	39	8	
15	0	0	0	0	505	460	0	486	38	8	
0	0	0	0	0	509	461	0	485	39	8	
1	0	0	0	0	502	460	0	487	38	8	
2	0	0	0	0	509	460	0	515	39	8	
3	0	0	0	0	518	461	0	536	39	8	
4	0	0	0	0	508	461	0	551	38	9	
5	0	0	0	0	509	462	0	568	39	9	
6	0	0	0	0	514	462	0	567	39	8	
7	0	0	0	0	500	462	0	576	39	8	
8	0	0	0	0	502	463	0	574	39	8	
9	0	0	0	0	504	463	0	573	38	8	
10	0	0	0	0	504	464	0	581	39	8	
11	0	0	0	0	510	462	0	568	39	8	
12	0	0	0	0	514	464	0	560	38	9	
13	0	0	0	0	516	464	0	543	39	8	
14	0	0	0	0	507	465	0	527	38	8	
15	0	0	0	0	511	466	0	515	39	8	
0	0	0	0	0	506	466	0	505	39	8	
1	0	0	0	0	506	466	0	496	38	8	
2	0	0	0	0	508	467	0	488	38	8	
3	0	0	0	0	506	467	0	485	38	8	
4	0	0	0	0	501	467	0	486	39	9	
5	0	0	0	0	507	467	0	481	39	9	
6	0	0	0	0	510	467	0	485	39	8	
7	0	0	0	0	505	468	0	478	39	8	
8	0	0	0	0	507	468	0	477	38	8	
9	0	0	0	0	505	470	0	476	38	8	
10	0	0	0	0	509	469	0	470	39	8	
11	0	0	0	0	508	470	0	476	39	8	
12	0	0	0	0	509	470	0	475	38	9	
13	0	0	0	0	511	470	0	479	39	9	
14	0	0	0	0	506	470	0	483	39	9	
15	0	0	0	0	508	470	0	479	39	8	
0	0	0	0	0	504	471	0	479	39	8	
1	0	0	0	0	515	472	0	472	38	8	
2	0	0	0	0	510	472	0	469	38	8	
3	0	0	0	0	510	472	0	476	39	8	
4	0	0	0	0	500	470	0	470	39	8	
5	0	0	0	0	499	468	0	479	39	9	
6	0	0	0	0	509	465	0	474	38	9	
7	0	0	0	0	504	463	0	473	38	8	
8	0	0	0	0	506	460	0	484	39	8	
9	0	0	0	0	498	456	0	505	38	8	
10	0	0	0	0	508	453	0	520	39	8	
11	0	0	0	0	505	449	0	536	38	8	
12	0	0	0	0	518	446	0	548	38	8	
13	0	0	0	0	512	444	0	553	39	9	
14	0	0	0	0	501	440	0	575	38	9	
15	0	0	0	0	506	437	0	562	39	8	
0	0	0	0	0	510	433	0	566	38	8	
1	0	0	0	0	516	429	0	559	38	8	
2	0	0	0	0	508	426	0	557	39	8	
3	0	0	0	0	504	423	0	563	39	8	
4	0	0	0	0	506	420	0	555	39	9	
5	0	0	0	0	511	417	0	548	39	9	
6	0	0	0	0	505	413	0	549	38	9	
7	0	0	0	0	501	409	0	555	39	9	
8	0	0	0	0	511	406	0	546	39	8	
9	0	0	0	0	508	404	0	537	38	8	
10	0	0	0	0	509	400	0	521	39	8	
11	0	0	0	0	510	398	0	512	38	8	
12	0	0	0	0	507	396	0	498	39	8	
13	0	0	0	0	507	393	0	488	39	8	
14	0	0	0	0	504	390	0	484	39	9	
15	0	0	0	0	507	387	0	477	38	9	
0	0	0	0	0	509	383	0	474	38	8	
1	0	0	0	0	504	380	0	470	38	8	
2	0	0	0	0	505	377	0	465	39	8	
3	0	0	0	0	504	375	0	471	39	8	
4	0	0	0	0	508	373	0	467	38	8	
5	0	0	0	0	514	372	0	472	39	8	
6	0	0	0	0	505	371	0	475	39	9	
7	0	0	0	0	511	369	0	468	39	9	
8	0	0	0	0	507	369	0	470	39	8	
9	0	0	0	0	513	367	0	462	38	8	
10	0	0	0	0	506	367	0	464	38	8	
11	0	0	0	0	505	367	0	469	39	8	
12	0	0	0	0	499	366	0	464	39	8	
13	0	0	0	0	501	366	0	468	39	8	
14	0	0	0	0	510	365	0	467	39	9	
15	0	0	0	0	499	365	0	467	38	9	
0	0	0	0	0	508	364	0	464	39	9	
1	0	0	0	0	503	364	0	460	38	8	
2	0	0	0	0	502	363	0	465	39	8	
3	0	0	0	0	515	361	0	463	39	8	
4	0	0	0	0	505	360	0	467	38	8	
5	0	0	0	0	501	359	0	481	39	8	
6	0	0	0	0	511	358	0	505	39	9	
7	0	0	0	0	515	358	0	516	39	9	
8	0	0	0	0	505	356	0	533	38	8	
9	0	0	0	0	506	355	0	540	38	8	
10	0	0	0	0	512	354	0	546	39	8	
11	0	0	0	0	498	353	0	560	39	8	
12	0	0	0	0	511	352	0	557	39	8	
13	0	0	0	0	501	351	0	564	39	8	
14	0	0	0	0	507	350	0	563	39	8	
15	0	0	0	0	508	349	0	562	39	9	
0	0	0	0	0	500	348	0	563	39	9	
1	0	0	0	0	503	347	0	550	38	9	
2	0	0	0	0	510	345	0	539	39	8	
3	0	0	0	0	515	346	0	519	38	8	
4	0	0	0	0	509	348	0	508	39	8	
5	0	0	0	0	508	350	0	493	39	8	
6	0	0	0	0	501	353	0	489	39	8	
7	0	0	0	0	513	357	0	476	39	9	
8	0	0	0	0	510	362	0	475	38	9	
9	0	0	0	0	507	366	0	475	38	8	
10	0	0	0	0	505	369	0	465	39	8	
11	0	0	0	0	505	374	0	470	39	8	
12	0	0	0	0	507	378	0	465	38	8	
13	0	0	0	0	514	383	0	469	39	8	
14	0	0	0	0	512	388	0	482	39	8	
15	0	0	0	0	509	391	0	465	38	8	
0	0	0	0	0	505	396	0	471	39	9	
1	0	0	0	0	510	401	0	460	38	9	
2	0	0	0	0	506	406	0	465	38	8	
3	0	0	0	0	508	409	0	469	39	8	
4	0	0	0	0	501	411	0	463	39	8	
5	0	0	0	0	501	414	0	468	39	8	
6	0	0	0	0	511	415	0	467	39	8	
7	0	0	0	0	507	416	0	468	39	8	
8	0	0	0	0	500	417	0	467	39	9	
9	0	0	0	0	506	418	0	463	38	9	
10	0	0	0	0	507	419	0	468	39	8	
11	0	0	0	0	516	419	0	465	39	8	
12	0	0	0	0	513	420	0	472	38	8	
13	0	0	0	0	504	421	0	478	39	8	
14	0	0	0	0	503	421	0	479	38	8	
15	0	0	0	0	510	420	0	504	39	8	
0	0	0	0	0	515	421	0	519	39	8	
1	0	0	0	0	507	421	0	533	38	9	
2	0	0	0	0	504	422	0	548	39	8	
3	0	0	0	0	512	423	0	552	39	8	
4	0	0	0	0	504	424	0	561	39	8	
5	0	0	0	0	510	428	0	561	39	8	
6	0	0	0	0	504	431	0	561	39	8	
7	0	0	0	0	507	435	0	568	39	8	
8	0	0	0	0	509	439	0	559	39	8	
9	0	0	0	0	503	443	0	568	38	8	
10	0	0	0	0	513	448	0	563	39	8	
11	0	0	0	0	502	452	0	559	39	8	
12	0	0	0	0	503	457	0	543	39	8	
13	0	0	0	0	513	462	0	529	39	8	
14	0	0	0	0	497	467	0	514	39	8	
15	0	0	0	0	507	471	0	519	38	8	
0	0	0	0	0	512	476	0	495	38	8	
1	0	0	0	0	507	481	0	499	38	9	
2	0	0	0	0	506	485	0	483	39	9	
3	0	0	0	0	503	489	0	489	39	8	
4	0	0	0	0	508	495	0	480	39	8	
5	0	0	0	0	501	499	0	485	39	8	
6	0	0	0	0	511	504	0	487	39	8	
7	0	0	0	0	510	508	0	492	38	8	
8	0	0	0	0	509	511	0	514	39	8	
9	0	0	0	0	509	517	0	533	38	8	
10	0	0	0	0	510	521	0	547	39	9	
11	0	0	0	0	508	525	0	564	39	8	
12	0	0	0	0	510	527	0	560	38	8	
13	0	0	0	0	507	533	0	560	39	8	
14	0	0	0	0	511	537	0	565	38	8	
15	0	0	0	0	511	542	0	567	38	8	
0	0	0	0	0	497	546	0	563	39	8	
1	0	0	0	0	506	550	0	550	38	8	
2	0	0	0	0	505	554	0	535	38	9	
3	0	0	0	0	507	557	0	520	39	8	
4	0	0	0	0	511	561	0	513	38	8	
5	0	0	0	0	514	566	0	503	39	8	
6	0	0	0	0	504	569	0	497	39	8	
7	0	0	0	0	505	573	0	496	38	8	
8	0	0	0	0	511	576	0	485	38	8	
9	0	0	0	0	511	580	0	484	38	8	
10	0	0	0	0	506	584	0	494	39	9	
11	0	0	0	0	502	586	0	483	38	9	
12	0	0	0	0	504	591	0	505	38	8	
13	0	0	0	0	507	594	0	484	39	8	
14	0	0	0	0	504	597	0	487	38	8	
15	0	0	0	0	508	601	0	487	39	8	
0	0	0	0	0	508	604	0	481	39	8	
1	0	0	0	0	505	608	0	482	38	8	
2	0	0	0	0	508	611	0	479	39	9	
3	0	0	0	0	510	612	0	479	38	9	
4	0	0	0	0	516	615	0	488	39	9	
5	0	0	0	0	502	615	0	483	39	8	
6	0	0	0	0	516	617	0	490	39	8	
7	0	0	0	0	504	619	0	484	39	8	
8	0	0	0	0	501	619	0	488	39	8	
9	0	0	0	0	500	620	0	485	38	8	
10	0	0	0	0	504	619	0	482	39	8	
11	0	0	0	0	499	619	0	486	39	9	
12	0	0	0	0	512	619	0	486	39	8	
13	0	0	0	0	513	619	0	510	39	8	
14	0	0	0	0	505	619	0	535	39	8	
15	0	0	0	0	516	619	0	542	39	8	
0	0	0	0	0	504	617	0	561	39	8	
1	0	0	0	0	515	618	0	560	38	8	
2	0	0	0	0	503	617	0	568	39	8	
3	0	0	0	0	508	617	0	577	39	9	
4	0	0	0	0	516	616	0	572	38	9	
5	0	0	0	0	504	615	0	579	39	8	
6	0	0	0	0	512	616	0	579	39	8	
7	0	0	0	0	504	615	0	577	39	8	
8	0	0	0	0	506	615	0	580	39	8	
9	0	0	0	0	510	613	0	563	38	8	
10	0	0	0	0	499	615	0	558	38	8	
11	0	0	0	0	513	615	0	540	39	9	
12	0	0	0	0	504	614	0	522	38	9	
13	0	0	0	0	510	615	0	511	39	9	
14	0	0	0	0	511	614	0	501	38	8	
15	0	0	0	0	510	613	0	496	39	8	
0	0	0	0	0	518	612	0	483	39	8	
1	0	0	0	0	507	611	0	480	38	8	
2	0	0	0	0	503	612	0	481	39	8	
3	0	0	0	0	511	611	0	475	39	8	
4	0	0	0	0	503	611	0	480	39	9	
5	0	0	0	0	508	611	0	477	39	9	
6	0	0	0	0	511	609	0	478	38	8	
7	0	0	0	0	510	610	0	482	39	8	
8	0	0	0	0	507	608	0	472	38	8	
9	0	0	0	0	512	608	0	475	38	8	
10	0	0	0	0	513	608	0	470	38	8	
11	0	0	0	0	514	608	0	473	38	8	
12	0	0	0	0	506	608	0	479	39	9	
13	0	0	0	0	504	607	0	473	39	9	
14	0	0	0	0	503	607	0	480	39	8	
15	0	0	0	0	506	606	0	473	39	8	
0	0	0	0	0	504	606	0	475	38	8	
1	0	0	0	0	507	606	0	475	38	8	
2	0	0	0	0	497	605	0	471	39	8	
3	0	0	0	0	505	605	0	476	39	8	
4	0	0	0	0	510	604	0	478	38	9	
5	0	0	0	0	508	604	0	480	39	9	
6	0	0	0	0	508	604	0	487	39	9	
7	0	0	0	0	500	603	0	480	38	8	
8	0	0	0	0	508	604	0	484	39	8	
9	0	0	0	0	520	604	0	472	38	8	
10	0	0	0	0	510	603	0	476	38	8	
11	0	0	0	0	509	604	0	479	39	8	
12	0	0	0	0	507	603	0	476	39	8	
13	0	0	0	0	507	603	0	480	39	9	
14	0	0	0	0	504	603	0	479	39	9	
15	0	0	0	0	506	602	0	479	39	8	
0	0	0	0	0	507	604	0	482	39	8	
1	0	0	0	0	505	602	0	473	38	8	
2	0	0	0	0	506	604	0	483	39	8	
3	0	0	0	0	504	603	0	503	38	8	
4	0	0	0	0	514	602	0	524	39	8	
5	0	0	0	0	504	601	0	538	39	9	
6	0	0	0	0	506	601	0	558	39	9	
7	0	0	0	0	511	602	0	556	39	9	
8	0	0	0	0	507	601	0	563	38	8	
9	0	0	0	0	513	600	0	559	38	8	
10	0	0	0	0	511	601	0	559	39	8	
11	0	0	0	0	496	601	0	569	39	8	
12	0	0	0	0	504	600	0	566	39	8	
13	0	0	0	0	510	599	0	569	39	9	
14	0	0	0	0	507	599	0	569	38	9	
15	0	0	0	0	504	599	0	567	39	9	
0	0	0	0	0	502	598	0	574	39	8	
1	0	0	0	0	512	598	0	564	38	8	
2	0	0	0	0	504	597	0	566	38	8	
3	0	0	0	0	508	596	0	563	38	8	
4	0	0	0	0	511	597	0	562	39	8	
5	0	0	0	0	505	595	0	546	39	9	
6	0	0	0	0	498	595	0	532	38	9	
7	0	0	0	0	512	594	0	513	39	8	
8	0	0	0	0	514	593	0	507	38	8	
9	0	0	0	0	505	594	0	497	38	8	
10	0	0	0	0	503	592	0	490	39	8	
11	0	0	0	0	509	593	0	484	39	8	
12	0	0	0	0	510	592	0	479	38	8	
13	0	0	0	0	508	591	0	476	39	8	
14	0	0	0	0	506	591	0	480	39	9	
15	0	0	0	0	506	589	0	471	38	9	
0	0	0	0	0	503	589	0	474	39	8	
1	0	0	0	0	509	589	0	463	38	8	
2	0	0	0	0	508	588	0	469	38	8	
3	0	0	0	0	507	590	0	473	39	8	
4	0	0	0	0	502	588	0	468	39	8	
5	0	0	0	0	502	587	0	473	39	8	
6	0	0	0	0	504	586	0	474	38	9	
7	0	0	0	0	508	585	0	472	38	9	
8	0	0	0	0	510	585	0	473	39	9	
9	0	0	0	0	510	583	0	467	38	8	
10	0	0	0	0	502	582	0	476	39	8	
11	0	0	0	0	512	581	0	469	39	8	
12	0	0	0	0	513	579	0	476	39	8	
13	0	0	0	0	504	579	0	479	39	8	
14	0	0	0	0	505	576	0	475	38	9	
15	0	0	0	0	502	576	0	479	39	9	
0	0	0	0	0	516	575	0	474	39	9	
1	0	0	0	0	507	574	0	494	38	8	
2	0	0	0	0	507	573	0	521	39	8	
3	0	0	0	0	510	571	0	534	39	8	
4	0	0	0	0	509	569	0	549	38	8	
5	0	0	0	0	510	569	0	555	39	8	
6	0	0	0	0	509	567	0	558	39	8	
7	0	0	0	0	508	567	0	563	39	9	
8	0	0	0	0	511	566	0	552	39	9	
9	0	0	0	0	505	564	0	559	38	8	
10	0	0	0	0	509	564	0	559	39	8	
11	0	0	0	0	502	563	0	562	39	8	
12	0	0	0	0	513	562	0	565	39	8	
13	0	0	0	0	504	560	0	557	39	8	
14	0	0	0	0	504	558	0	563	39	8	
15	0	0	0	0	515	557	0	557	39	8	
0	0	0	0	0	504	556	0	548	38	9	
1	0	0	0	0	511	555	0	533	38	9	
2	0	0	0	0	511	552	0	515	39	8	
3	0	0	0	0	503	551	0	501	39	8	
4	0	0	0	0	510	548	0	487	38	8	
5	0	0	0	0	505	547	0	486	39	8	
6	0	0	0	0	505	547	0	485	39	8	
7	0	0	0	0	506	544	0	476	39	8	
8	0	0	0	0	513	543	0	474	39	9	
9	0	0	0	0	507	542	0	465	38	9	
10	0	0	0	0	507	540	0	470	38	8	
11	0	0	0	0	500	539	0	475	39	8	
12	0	0	0	0	509	537	0	466	38	8	
13	0	0	0	0	506	536	0	474	39	8	
14	0	0	0	0	511	535	0	468	38	8	
15	0	0	0	0	510	533	0	472	38	8	
0	0	0	0	0	507	532	0	468	39	9	
1	0	0	0	0	504	531	0	466	38	9	
2	0	0	0	0	506	530	0	469	39	8	
3	0	0	0	0	512	528	0	468	38	8	
4	0	0	0	0	501	526	0	470	38	8	
5	0	0	0	0	511	525	0	478	39	8	
6	0	0	0	0	509	522	0	468	39	8	
7	0	0	0	0	505	519	0	476	39	8	
8	0	0	0	0	518	517	0	467	38	9	
9	0	0	0	0	503	514	0	471	38	9	
10	0	0	0	0	507	512	0	473	39	9	
11	0	0	0	0	503	509	0	468	39	8	
12	0	0	0	0	504	507	0	472	39	8	
13	0	0	0	0	512	504	0	471	39	8	
14	0	0	0	0	504	502	0	472	39	8	
15	0	0	0	0	505	500	0	483	39	8	
0	0	0	0	0	507	498	0	502	39	8	
1	0	0	0	0	511	496	0	514	38	9	
2	0	0	0	0	511	494	0	529	38	9	
3	0	0	0	0	514	492	0	541	38	8	
4	0	0	0	0	507	489	0	547	39	8	
5	0	0	0	0	504	487	0	563	39	8	
6	0	0	0	0	501	484	0	562	39	8	
7	0	0	0	0	508	481	0	564	38	8	
8	0	0	0	0	509	479	0	557	39	8	
9	0	0	0	0	515	477	0	550	38	9	
10	0	0	0	0	500	476	0	557	39	9	
11	0	0	0	0	509	474	0	551	39	9	
12	0	0	0	0	507	472	0	544	39	8	
13	0	0	0	0	511	471	0	529	39	8	
14	0	0	0	0	513	470	0	516	39	8	
15	0	0	0	0	510	469	0	504	39	8	
0	0	0	0	0	501	469	0	496	39	8	
1	0	0	0	0	511	467	0	484	38	9	
2	0	0	0	0	508	467	0	480	38	9	
3	0	0	0	0	502	467	0	480	39	9	
4	0	0	0	0	504	465	0	468	39	8	
5	0	0	0	0	504	465	0	472	39	8	
6	0	0	0	0	507	464	0	470	39	8	
7	0	0	0	0	506	464	0	470	38	8	
8	0	0	0	0	504	463	0	470	39	8	
9	0	0	0	0	510	463	0	465	38	8	
10	0	0	0	0	510	463	0	473	39	9	
11	0	0	0	0	511	462	0	470	38	9	
12	0	0	0	0	512	462	0	473	38	8	
13	0	0	0	0	506	462	0	479	39	8	
14	0	0	0	0	503	461	0	476	38	8	
15	0	0	0	0	502	460	0	482	39	8	
0	0	0	0	0	510	460	0	476	38	8	
1	0	0	0	0	510	460	0	476	38	8	
2	0	0	0	0	499	460	0	481	39	9	
3	0	0	0	0	509	460	0	476	39	9	
4	0	0	0	0	507	460	0	482	39	8	
5	0	0	0	0	509	460	0	481	39	8	
6	0	0	0	0	512	460	0	484	38	8	
7	0	0	0	0	508	461	0	489	39	8	
8	0	0	0	0	505	461	0	487	39	8	
9	0	0	0	0	505	460	0	512	38	8	
10	0	0	0	0	517	461	0	531	39	8	
11	0	0	0	0	496	462	0	550	39	9	
12	0	0	0	0	500	462	0	567	39	9	
13	0	0	0	0	508	463	0	565	39	8	
14	0	0	0	0	505	462	0	576	39	8	
15	0	0	0	0	514	463	0	574	39	8	
0	0	0	0	0	512	463	0	575	39	8	
1	0	0	0	0	512	464	0	577	38	8	
2	0	0	0	0	510	464	0	570	39	8	
3	0	0	0	0	507	464	0	578	39	9	
4	0	0	0	0	510	465	0	578	39	8	
5	0	0	0	0	508	465	0	573	39	8	
6	0	0	0	0	513	466	0	572	39	8	
7	0	0	0	0	499	467	0	577	39	8	
8	0	0	0	0	508	467	0	572	39	8	
9	0	0	0	0	508	466	0	561	38	8	
10	0	0	0	0	508	466	0	544	38	8	
11	0	0	0	0	505	466	0	532	39	9	
12	0	0	0	0	504	466	0	519	39	9	
13	0	0	0	0	503	466	0	511	39	8	
14	0	0	0	0	519	467	0	503	39	8	
15	0	0	0	0	509	467	0	499	39	8	
0	0	0	0	0	508	469	0	494	39	8	
1	0	0	0	0	496	469	0	487	38	8	
2	0	0	0	0	501	470	0	486	39	8	
3	0	0	0	0	509	470	0	480	39	9	
4	0	0	0	0	511	470	0	481	38	9	
5	0	0	0	0	515	472	0	485	39	9	
6	0	0	0	0	505	471	0	485	38	8	
7	0	0	0	0	508	472	0	489	39	8	
8	0	0	0	0	508	472	0	482	39	8	
9	0	0	0	0	510	472	0	479	38	8	
10	0	0	0	0	507	473	0	483	39	8	
11	0	0	0	0	504	472	0	483	39	8	
12	0	0	0	0	505	471	0	487	39	9	
13	0	0	0	0	509	469	0	486	39	9	
14	0	0	0	0	514	466	0	487	38	8	
15	0	0	0	0	504	463	0	492	39	8	
0	0	0	0	0	502	460	0	484	38	8	
1	0	0	0	0	503	456	0	487	38	8	
2	0	0	0	0	504	452	0	481	38	8	
3	0	0	0	0	508	449	0	483	38	8	
4	0	0	0	0	513	446	0	488	39	9	
5	0	0	0	0	507	442	0	496	39	9	
6	0	0	0	0	508	439	0	521	39	8	
7	0	0	0	0	517	435	0	536	39	8	
8	0	0	0	0	509	431	0	548	39	8	
9	0	0	0	0	504	428	0	563	38	8	
10	0	0	0	0	513	424	0	563	39	8	
11	0	0	0	0	499	421	0	577	39	8	
12	0	0	0	0	515	418	0	573	39	8	
13	0	0	0	0	512	415	0	575	39	9	
14	0	0	0	0	508	412	0	583	39	9	
15	0	0	0	0	508	409	0	582	39	8	
0	0	0	0	0	509	405	0	581	38	8	
1	0	0	0	0	514	403	0	580	38	8	
2	0	0	0	0	506	400	0	573	38	8	
3	0	0	0	0	503	397	0	559	39	8	
4	0	0	0	0	505	394	0	539	38	8	
5	0	0	0	0	508	391	0	526	39	9	
6	0	0	0	0	512	388	0	513	39	9	
7	0	0	0	0	512	385	0	520	38	8	
8	0	0	0	0	504	383	0	500	39	8	
9	0	0	0	0	497	380	0	492	38	8	
10	0	0	0	0	504	378	0	491	38	8	
11	0	0	0	0	507	376	0	486	38	8	
12	0	0	0	0	506	375	0	487	38	8	
13	0	0	0	0	509	374	0	490	39	9	
14	0	0	0	0	512	372	0	487	39	9	
15	0	0	0	0	510	371	0	492	39	8	
0	0	0	0	0	513	370	0	483	39	8	
1	0	0	0	0	503	369	0	483	38	8	
2	0	0	0	0	508	368	0	486	39	8	
3	0	0	0	0	512	367	0	486	39	8	
4	0	0	0	0	500	368	0	491	39	8	
5	0	0	0	0	509	366	0	488	39	9	
6	0	0	0	0	508	365	0	488	38	9	
7	0	0	0	0	499	365	0	490	39	9	
8	0	0	0	0	502	364	0	482	39	8	
9	0	0	0	0	512	364	0	500	38	8	
10	0	0	0	0	511	364	0	479	39	8	
11	0	0	0	0	511	363	0	483	38	8	
12	0	0	0	0	504	362	0	487	39	8	
13	0	0	0	0	512	361	0	486	39	8	
14	0	0	0	0	507	360	0	492	39	9	
15	0	0	0	0	510	358	0	511	38	9	
0	0	0	0	0	500	357	0	524	39	8	
1	0	0	0	0	515	356	0	537	38	8	
2	0	0	0	0	504	355	0	558	39	8	
3	0	0	0	0	509	354	0	565	39	8	
4	0	0	0	0	510	353	0	572	38	8	
5	0	0	0	0	508	352	0	579	39	8	
6	0	0	0	0	510	350	0	571	39	9	
7	0	0	0	0	504	350	0	591	39	9	
8	0	0	0	0	506	349	0	567	39	9	
9	0	0	0	0	500	347	0	571	38	8	
10	0	0	0	0	507	345	0	568	39	8	
11	0	0	0	0	508	345	0	571	39	8	
12	0	0	0	0	506	346	0	553	39	8	
13	0	0	0	0	515	349	0	543	39	8	
14	0	0	0	0	507	352	0	519	39	8	
15	0	0	0	0	510	355	0	527	38	9	
0	0	0	0	0	510	360	0	498	39	9	
1	0	0	0	0	498	363	0	500	38	8	
2	0	0	0	0	503	368	0	484	39	8	
3	0	0	0	0	514	372	0	477	39	8	
4	0	0	0	0	509	377	0	478	38	8	
5	0	0	0	0	508	382	0	481	39	8	
6	0	0	0	0	507	386	0	476	38	9	
7	0	0	0	0	507	391	0	482	39	9	
8	0	0	0	0	513	396	0	474	39	9	
9	0	0	0	0	505	400	0	474	38	8	
10	0	0	0	0	508	406	0	479	39	8	
11	0	0	0	0	503	410	0	475	38	8	
12	0	0	0	0	508	413	0	479	39	8	
13	0	0	0	0	506	415	0	477	39	8	
14	0	0	0	0	504	416	0	479	38	8	
15	0	0	0	0	503	418	0	482	39	9	
0	0	0	0	0	508	417	0	473	39	9	
1	0	0	0	0	508	419	0	477	38	8	
2	0	0	0	0	508	419	0	472	39	8	
3	0	0	0	0	507	420	0	476	38	8	
4	0	0	0	0	510	420	0	480	39	8	
5	0	0	0	0	505	420	0	477	39	8	
6	0	0	0	0	503	420	0	483	39	8	
7	0	0	0	0	511	420	0	478	39	9	
8	0	0	0	0	518	420	0	478	38	9	
9	0	0	0	0	509	421	0	483	38	9	
10	0	0	0	0	510	420	0	476	39	8	
11	0	0	0	0	495	422	0	482	39	8	
12	0	0	0	0	505	424	0	479	39	8	
13	0	0	0	0	505	427	0	481	39	8	
14	0	0	0	0	505	431	0	486	39	8	
15	0	0	0	0	504	434	0	480	39	8	
0	0	0	0	0	511	438	0	482	39	9	
1	0	0	0	0	515	442	0	475	38	9	
2	0	0	0	0	514	447	0	478	38	8	
3	0	0	0	0	509	451	0	483	39	8	
4	0	0	0	0	501	455	0	475	38	8	
5	0	0	0	0	505	460	0	481	39	8	
6	0	0	0	0	506	465	0	477	38	8	
7	0	0	0	0	504	470	0	477	38	8	
8	0	0	0	0	511	475	0	476	39	9	
9	0	0	0	0	505	479	0	469	38	9	
10	0	0	0	0	500	484	0	475	39	8	
11	0	0	0	0	511	489	0	473	39	8	
12	0	0	0	0	510	494	0	477	38	8	
13	0	0	0	0	515	499	0	482	39	8	
14	0	0	0	0	503	503	0	477	38	8	
15	0	0	0	0	509	507	0	480	39	8	
0	0	0	0	0	513	511	0	472	38	9	
1	0	0	0	0	506	516	0	478	38	9	
2	0	0	0	0	506	521	0	479	39	9	
3	0	0	0	0	504	524	0	477	39	8	
4	0	0	0	0	509	529	0	480	39	8	
5	0	0	0	0	513	534	0	481	39	8	
6	0	0	0	0	505	538	0	482	39	8	
7	0	0	0	0	511	542	0	483	39	8	
8	0	0	0	0	500	545	0	473	39	8	
9	0	0	0	0	500	551	0	481	38	9	
10	0	0	0	0	505	553	0	496	38	9	
11	0	0	0	0	510	558	0	515	38	8	
12	0	0	0	0	508	562	0	529	39	8	
13	0	0	0	0	497	565	0	551	39	8	
14	0	0	0	0	512	569	0	556	39	8	
15	0	0	0	0	511	572	0	562	38	8	
0	0	0	0	0	505	576	0	560	39	8	
1	0	0	0	0	509	579	0	556	38	9	
2	0	0	0	0	499	583	0	564	39	9	
3	0	0	0	0	506	586	0	558	39	9	
4	0	0	0	0	511	589	0	563	38	8	
5	0	0	0	0	508	593	0	564	39	8	
6	0	0	0	0	508	597	0	564	39	8	
7	0	0	0	0	503	600	0	569	39	8	
8	0	0	0	0	512	604	0	560	39	8	
9	0	0	0	0	503	607	0	560	38	9	
10	0	0	0	0	515	610	0	560	38	9	
11	0	0	0	0	509	612	0	558	39	9	
12	0	0	0	0	498	615	0	564	39	8	
13	0	0	0	0	510	617	0	556	39	8	
14	0	0	0	0	509	617	0	559	38	8	
15	0	0	0	0	504	618	0	555	39	8	
0	0	0	0	0	512	618	0	550	39	8	
1	0	0	0	0	499	618	0	558	38	8	
2	0	0	0	0	509	619	0	553	39	9	
3	0	0	0	0	509	618	0	555	38	9	
4	0	0	0	0	513	618	0	555	38	8	
5	0	0	0	0	497	619	0	551	39	8	
6	0	0	0	0	504	618	0	545	39	8	
7	0	0	0	0	510	617	0	552	39	8	
8	0	0	0	0	511	619	0	549	39	8	
9	0	0	0	0	500	618	0	545	38	8	
10	0	0	0	0	507	619	0	545	39	9	
11	0	0	0	0	508	618	0	535	39	9	
12	0	0	0	0	505	617	0	519	38	8	
13	0	0	0	0	505	616	0	506	39	8	
14	0	0	0	0	511	616	0	500	38	8	
15	0	0	0	0	508	617	0	494	39	8	
0	0	0	0	0	508	616	0	493	39	8	
1	0	0	0	0	505	616	0	486	38	8	
2	0	0	0	0	512	615	0	480	38	9	
3	0	0	0	0	512	615	0	479	38	9	
4	0	0	0	0	515	615	0	486	39	9	
5	0	0	0	0	502	614	0	480	39	8	
6	0	0	0	0	508	614	0	484	39	8	
7	0	0	0	0	512	613	0	480	39	8	
8	0	0	0	0	507	612	0	484	38	8	
9	0	0	0	0	510	613	0	484	38	8	
10	0	0	0	0	498	612	0	475	39	8	
11	0	0	0	0	505	611	0	479	38	9	
12	0	0	0	0	505	611	0	477	39	9	
13	0	0	0	0	507	611	0	483	39	8	
14	0	0	0	0	509	611	0	487	39	8	
15	0	0	0	0	508	609	0	486	39	8	
0	0	0	0	0	505	610	0	487	39	8	
1	0	0	0	0	507	609	0	480	38	8	
2	0	0	0	0	516	609	0	482	38	8	
3	0	0	0	0	509	610	0	488	39	9	
4	0	0	0	0	504	608	0	482	38	9	
5	0	0	0	0	504	608	0	488	39	8	
6	0	0	0	0	510	607	0	486	39	8	
7	0	0	0	0	505	607	0	504	38	8	
8	0	0	0	0	500	606	0	526	39	8	
9	0	0	0	0	509	606	0	536	38	8	
10	0	0	0	0	507	605	0	556	39	8	
11	0	0	0	0	508	605	0	560	39	8	
12	0	0	0	0	510	605	0	567	38	9	
13	0	0	0	0	505	605	0	580	39	9	
14	0	0	0	0	511	604	0	575	39	8	
15	0	0	0	0	506	603	0	585	39	8	
0	0	0	0	0	515	604	0	576	39	8	
1	0	0	0	0	515	604	0	572	38	8	
2	0	0	0	0	498	604	0	579	39	8	
3	0	0	0	0	516	602	0	571	38	8	
4	0	0	0	0	505	604	0	560	38	9	
5	0	0	0	0	507	603	0	542	39	8	
6	0	0	0	0	513	603	0	526	38	8	
7	0	0	0	0	508	604	0	512	39	8	
8	0	0	0	0	503	602	0	499	39	8	
9	0	0	0	0	504	602	0	494	38	8	
10	0	0	0	0	504	602	0	483	39	8	
11	0	0	0	0	511	601	0	482	38	8	
12	0	0	0	0	509	603	0	484	39	9	
13	0	0	0	0	500	602	0	477	39	9	
14	0	0	0	0	505	602	0	481	39	8	
15	0	0	0	0	515	602	0	474	39	8	
0	0	0	0	0	509	602	0	477	38	8	
1	0	0	0	0	505	603	0	475	38	8	
2	0	0	0	0	504	601	0	470	39	8	
3	0	0	0	0	514	601	0	476	39	8	
4	0	0	0	0	511	601	0	475	38	9	
5	0	0	0	0	501	600	0	480	39	9	
6	0	0	0	0	505	601	0	486	39	9	
7	0	0	0	0	505	599	0	482	39	8	
8	0	0	0	0	499	600	0	484	39	8	
9	0	0	0	0	512	600	0	475	38	8	
10	0	0	0	0	516	599	0	478	38	8	
11	0	0	0	0	508	599	0	483	39	8	
12	0	0	0	0	507	598	0	483	39	8	
13	0	0	0	0	504	597	0	486	39	9	
14	0	0	0	0	512	596	0	486	39	9	
15	0	0	0	0	512	595	0	483	39	8	
0	0	0	0	0	514	595	0	496	39	8	
1	0	0	0	0	504	594	0	513	38	8	
2	0	0	0	0	506	594	0	525	39	8	
3	0	0	0	0	510	593	0	543	38	8	
4	0	0	0	0	511	592	0	556	38	8	
5	0	0	0	0	503	592	0	563	39	9	
6	0	0	0	0	495	591	0	576	39	9	
7	0	0	0	0	510	591	0	569	39	9	
8	0	0	0	0	509	590	0	572	38	8	
9	0	0	0	0	511	590	0	568	38	8	
10	0	0	0	0	511	590	0	564	39	8	
11	0	0	0	0	501	589	0	572	39	8	
12	0	0	0	0	502	589	0	564	39	9	
13	0	0	0	0	512	587	0	558	39	8	
14	0	0	0	0	510	585	0	559	39	9	
15	0	0	0	0	505	585	0	566	39	9	
0	0	0	0	0	513	583	0	555	38	8	
1	0	0	0	0	512	583	0	547	38	8	
2	0	0	0	0	510	581	0	531	39	8	
3	0	0	0	0	508	580	0	520	38	8	
4	0	0	0	0	507	580	0	508	39	8	
5	0	0	0	0	507	579	0	499	39	8	
6	0	0	0	0	510	578	0	493	39	9	
7	0	0	0	0	508	577	0	488	39	9	
8	0	0	0	0	508	576	0	482	39	8	
9	0	0	0	0	507	575	0	484	38	8	
10	0	0	0	0	504	574	0	480	39	8	
11	0	0	0	0	501	573	0	486	39	8	
12	0	0	0	0	502	572	0	480	38	8	
13	0	0	0	0	505	570	0	485	39	8	
14	0	0	0	0	508	569	0	486	39	9	
15	0	0	0	0	511	567	0	487	39	9	
0	0	0	0	0	505	567	0	486	39	9	
1	0	0	0	0	512	566	0	479	38	8	
2	0	0	0	0	515	565	0	479	38	8	
3	0	0	0	0	500	564	0	484	39	8	
4	0	0	0	0	510	562	0	479	38	8	
5	0	0	0	0	503	561	0	485	39	8	
6	0	0	0	0	511	560	0	482	39	9	
7	0	0	0	0	504	558	0	483	39	9	
8	0	0	0	0	496	558	0	481	39	9	
9	0	0	0	0	504	556	0	480	38	8	
10	0	0	0	0	503	555	0	482	39	8	
11	0	0	0	0	511	553	0	481	38	8	
12	0	0	0	0	520	551	0	481	38	8	
13	0	0	0	0	512	550	0	497	39	8	
14	0	0	0	0	499	548	0	521	39	9	
15	0	0	0	0	504	547	0	533	39	9	
0	0	0	0	0	503	544	0	547	38	9	
1	0	0	0	0	510	542	0	553	38	8	
2	0	0	0	0	510	541	0	560	39	8	
3	0	0	0	0	502	540	0	571	39	8	
4	0	0	0	0	509	539	0	567	39	8	
5	0	0	0	0	507	537	0	573	39	8	
6	0	0	0	0	505	536	0	573	38	8	
7	0	0	0	0	507	534	0	571	39	9	
8	0	0	0	0	503	532	0	574	39	9	
9	0	0	0	0	514	531	0	563	38	9	
10	0	0	0	0	512	529	0	552	39	8	
11	0	0	0	0	510	528	0	534	38	8	
12	0	0	0	0	507	527	0	537	39	8	
13	0	0	0	0	505	524	0	511	39	8	
14	0	0	0	0	500	521	0	516	39	8	
15	0	0	0	0	508	519	0	489	38	9	
0	0	0	0	0	508	516	0	492	38	9	
1	0	0	0	0	509	515	0	483	38	9	
2	0	0	0	0	511	512	0	474	39	8	
3	0	0	0	0	504	510	0	477	39	8	
4	0	0	0	0	513	508	0	473	38	8	
5	0	0	0	0	509	505	0	475	39	8	
6	0	0	0	0	505	503	0	492	39	8	
7	0	0	0	0	502	499	0	470	38	8	
8	0	0	0	0	506	497	0	475	39	9	
9	0	0	0	0	507	495	0	461	38	9	
10	0	0	0	0	511	492	0	472	38	8	
11	0	0	0	0	508	491	0	466	39	8	
12	0	0	0	0	507	488	0	461	39	8	
13	0	0	0	0	503	486	0	465	39	8	
14	0	0	0	0	510	484	0	466	38	8	
15	0	0	0	0	513	481	0	467	39	8	
0	0	0	0	0	508	480	0	465	39	9	
1	0	0	0	0	506	478	0	460	38	9	
2	0	0	0	0	503	476	0	466	39	8	
3	0	0	0	0	511	474	0	463	38	8	
4	0	0	0	0	512	473	0	466	38	8	
5	0	0	0	0	505	472	0	472	39	8	
6	0	0	0	0	504	470	0	472	38	8	
7	0	0	0	0	502	469	0	495	39	8	
8	0	0	0	0	506	468	0	509	39	9	
9	0	0	0	0	502	467	0	523	38	9	
10	0	0	0	0	504	467	0	540	39	9	
11	0	0	0	0	504	466	0	543	38	8	
12	0	0	0	0	515	465	0	551	39	8	
13	0	0	0	0	511	465	0	550	39	8	
14	0	0	0	0	506	464	0	551	39	8	
15	0	0	0	0	505	464	0	558	39	8	
0	0	0	0	0	516	463	0	550	39	8	
1	0	0	0	0	505	463	0	556	38	9	
2	0	0	0	0	511	463	0	551	39	9	
3	0	0	0	0	505	463	0	545	38	8	
4	0	0	0	0	513	462	0	529	39	8	
5	0	0	0	0	509	462	0	514	39	8	
6	0	0	0	0	495	462	0	500	38	8	
7	0	0	0	0	511	461	0	489	38	8	
8	0	0	0	0	508	460	0	483	38	8	
9	0	0	0	0	502	460	0	477	38	9	
10	0	0	0	0	502	459	0	467	39	9	
11	0	0	0	0	512	459	0	471	39	8	
12	0	0	0	0	505	459	0	466	38	8	
13	0	0	0	0	512	460	0	480	39	8	
14	0	0	0	0	512	460	0	473	39	8	
15	0	0	0	0	508	460	0	467	38	8	
0	0	0	0	0	507	461	0	467	39	8	
1	0	0	0	0	511	461	0	460	38	9	
2	0	0	0	0	513	461	0	461	38	9	
3	0	0	0	0	512	462	0	467	39	9	
4	0	0	0	0	505	462	0	460	39	8	
5	0	0	0	0	499	462	0	465	39	8	
6	0	0	0	0	505	461	0	462	39	8	
7	0	0	0	0	505	461	0	465	38	8	
8	0	0	0	0	504	462	0	464	39	8	
9	0	0	0	0	508	462	0	457	38	8	
10	0	0	0	0	501	462	0	462	38	9	
11	0	0	0	0	509	463	0	460	39	9	
12	0	0	0	0	512	463	0	467	38	8	
13	0	0	0	0	502	464	0	473	39	8	
14	0	0	0	0	503	463	0	468	38	8	
15	0	0	0	0	503	465	0	478	39	8	
0	0	0	0	0	502	465	0	496	38	8	
1	0	0	0	0	512	465	0	510	38	8	
2	0	0	0	0	515	465	0	527	39	9	
3	0	0	0	0	503	466	0	551	39	9	
4	0	0	0	0	509	467	0	559	39	9	
5	0	0	0	0	507	467	0	568	38	8	
6	0	0	0	0	511	467	0	573	38	8	
7	0	0	0	0	517	468	0	574	39	8	
8	0	0	0	0	505	468	0	582	39	8	
9	0	0	0	0	502	469	0	573	38	8	
10	0	0	0	0	499	469	0	575	38	8	
11	0	0	0	0	512	468	0	573	38	9	
12	0	0	0	0	511	469	0	571	39	9	
13	0	0	0	0	500	468	0	559	39	8	
14	0	0	0	0	504	468	0	569	38	8	
15	0	0	0	0	513	469	0	564	39	8	
0	0	0	0	0	505	469	0	559	38	8	
1	0	0	0	0	513	470	0	543	38	8	
2	0	0	0	0	515	470	0	528	39	8	
3	0	0	0	0	510	470	0	515	38	9	
4	0	0	0	0	504	468	0	502	38	9	
5	0	0	0	0	506	466	0	496	39	8	
6	0	0	0	0	500	464	0	491	39	8	
7	0	0	0	0	507	462	0	487	39	8	
8	0	0	0	0	502	459	0	484	39	8	
9	0	0	0	0	516	456	0	476	38	8	
10	0	0	0	0	507	453	0	476	38	8	
11	0	0	0	0	502	450	0	482	39	9	
12	0	0	0	0	510	446	0	472	39	9	
13	0	0	0	0	501	442	0	481	39	8	
14	0	0	0	0	510	440	0	476	39	8	
15	0	0	0	0	513	436	0	477	39	8	
0	0	0	0	0	504	433	0	477	39	8	
1	0	0	0	0	496	430	0	475	38	8	
2	0	0	0	0	503	427	0	478	39	8	
3	0	0	0	0	512	423	0	478	39	9	
4	0	0	0	0	513	420	0	479	38	9	
5	0	0	0	0	512	417	0	487	39	9	
6	0	0	0	0	499	414	0	483	38	8	
7	0	0	0	0	504	411	0	489	39	8	
8	0	0	0	0	511	407	0	482	39	8	
9	0	0	0	0	506	404	0	481	38	8	
10	0	0	0	0	505	401	0	485	39	8	
11	0	0	0	0	505	398	0	483	39	8	
12	0	0	0	0	508	396	0	489	39	9	
13	0	0	0	0	512	392	0	488	39	9	
14	0	0	0	0	502	390	0	491	38	8	
15	0	0	0	0	501	387	0	496	39	8	
0	0	0	0	0	509	384	0	490	39	8	
1	0	0	0	0	505	382	0	494	38	8	
2	0	0	0	0	508	379	0	488	39	8	
3	0	0	0	0	512	377	0	491	38	8	
4	0	0	0	0	510	376	0	496	39	9	
5	0	0	0	0	510	374	0	501	39	9	
6	0	0	0	0	506	372	0	502	39	8	
7	0	0	0	0	512	371	0	503	39	8	
8	0	0	0	0	503	370	0	501	38	8	
9	0	0	0	0	505	369	0	498	38	8	
10	0	0	0	0	503	368	0	492	39	8	
11	0	0	0	0	505	368	0	496	39	8	
12	0	0	0	0	508	367	0	495	38	9	
13	0	0	0	0	510	366	0	499	39	9	
14	0	0	0	0	511	366	0	502	39	9	
15	0	0	0	0	509	365	0	500	38	8	
0	0	0	0	0	510	364	0	499	39	8	
1	0	0	0	0	508	364	0	491	38	8	
2	0	0	0	0	508	364	0	494	38	8	
3	0	0	0	0	508	364	0	496	39	8	
4	0	0	0	0	505	362	0	496	38	8	
5	0	0	0	0	504	361	0	500	39	9	
6	0	0	0	0	503	360	0	523	39	9	
7	0	0	0	0	511	359	0	538	38	8	
8	0	0	0	0	513	358	0	553	39	8	
9	0	0	0	0	503	357	0	569	38	8	
10	0	0	0	0	506	355	0	572	39	8	
11	0	0	0	0	501	354	0	580	38	8	
12	0	0	0	0	511	352	0	584	38	8	
13	0	0	0	0	504	351	0	583	39	9	
14	0	0	0	0	495	350	0	593	39	9	
15	0	0	0	0	509	349	0	584	39	9	
0	0	0	0	0	509	348	0	587	38	8	
1	0	0	0	0	513	347	0	580	38	8	
2	0	0	0	0	508	345	0	578	39	8	
3	0	0	0	0	501	345	0	583	39	8	
4	0	0	0	0	505	347	0	576	39	8	
5	0	0	0	0	513	349	0	581	39	9	
6	0	0	0	0	517	352	0	581	38	9	
7	0	0	0	0	510	356	0	578	39	9	
8	0	0	0	0	499	360	0	583	39	8	
9	0	0	0	0	501	364	0	574	38	8	
10	0	0	0	0	504	368	0	575	38	8	
11	0	0	0	0	512	373	0	583	39	8	
12	0	0	0	0	511	377	0	573	39	8	
13	0	0	0	0	503	382	0	583	39	8	
14	0	0	0	0	511	387	0	575	39	9	
15	0	0	0	0	499	392	0	578	39	9	
0	0	0	0	0	510	396	0	572	39	8	
1	0	0	0	0	504	401	0	568	38	8	
2	0	0	0	0	511	406	0	551	39	8	
3	0	0	0	0	503	408	0	537	39	8	
4	0	0	0	0	508	411	0	524	39	8	
5	0	0	0	0	506	414	0	513	39	8	
6	0	0	0	0	506	416	0	504	39	9	
7	0	0	0	0	508	417	0	499	39	9	
8	0	0	0	0	501	418	0	498	39	8	
9	0	0	0	0	504	419	0	495	38	8	
10	0	0	0	0	515	419	0	494	38	8	
11	0	0	0	0	507	420	0	494	39	8	
12	0	0	0	0	509	420	0	488	39	8	
13	0	0	0	0	504	421	0	490	39	8	
14	0	0	0	0	506	422	0	487	38	9	
15	0	0	0	0	502	422	0	486	38	9	
0	0	0	0	0	512	423	0	485	39	9	
1	0	0	0	0	512	423	0	481	38	8	
2	0	0	0	0	509	423	0	485	39	8	
3	0	0	0	0	502	424	0	483	39	8	
4	0	0	0	0	503	426	0	483	38	8	
5	0	0	0	0	509	430	0	489	39	8	
6	0	0	0	0	508	433	0	488	38	8	
7	0	0	0	0	509	437	0	494	39	9	
8	0	0	0	0	510	441	0	486	38	9	
9	0	0	0	0	507	446	0	484	38	8	
10	0	0	0	0	506	451	0	489	39	8	
11	0	0	0	0	507	454	0	485	38	8	
12	0	0	0	0	518	459	0	490	39	8	
13	0	0	0	0	507	463	0	490	39	8	
14	0	0	0	0	515	467	0	490	38	8	
15	0	0	0	0	503	473	0	492	39	9	
0	0	0	0	0	507	476	0	492	38	9	
1	0	0	0	0	502	480	0	512	38	8	
2	0	0	0	0	511	486	0	530	39	8	
3	0	0	0	0	505	491	0	545	39	8	
4	0	0	0	0	510	495	0	561	39	8	
5	0	0	0	0	505	499	0	561	39	8	
6	0	0	0	0	509	503	0	572	39	8	
7	0	0	0	0	518	508	0	568	39	8	
8	0	0	0	0	510	512	0	568	39	9	
9	0	0	0	0	502	516	0	568	38	9	
10	0	0	0	0	511	521	0	562	39	8	
11	0	0	0	0	511	525	0	570	38	8	
12	0	0	0	0	506	530	0	569	39	8	
13	0	0	0	0	504	534	0	564	39	8	
14	0	0	0	0	507	538	0	563	39	8	
15	0	0	0	0	504	542	0	567	39	8	
0	0	0	0	0	512	546	0	560	39	9	
1	0	0	0	0	518	549	0	551	38	8	
2	0	0	0	0	511	553	0	536	38	8	
3	0	0	0	0	507	558	0	523	39	8	
4	0	0	0	0	504	562	0	512	39	8	
5	0	0	0	0	505	566	0	502	39	8	
6	0	0	0	0	519	569	0	490	39	8	
7	0	0	0	0	504	573	0	485	38	8	
8	0	0	0	0	509	578	0	483	39	9	
9	0	0	0	0	503	580	0	472	38	9	
10	0	0	0	0	509	584	0	476	39	9	
11	0	0	0	0	518	588	0	471	38	8	
12	0	0	0	0	501	591	0	474	38	8	
13	0	0	0	0	505	595	0	478	39	8	
14	0	0	0	0	508	598	0	472	39	8	
15	0	0	0	0	509	601	0	475	39	8	
0	0	0	0	0	512	605	0	469	39	9	
1	0	0	0	0	510	608	0	469	38	9	
2	0	0	0	0	509	612	0	475	39	9	
3	0	0	0	0	509	613	0	468	39	8	
4	0	0	0	0	502	615	0	475	39	8	
5	0	0	0	0	506	617	0	472	39	8	
6	0	0	0	0	508	616	0	476	38	8	
7	0	0	0	0	506	618	0	478	39	8	
8	0	0	0	0	508	617	0	466	39	8	
9	0	0	0	0	506	618	0	469	38	9	
10	0	0	0	0	509	618	0	465	39	9	
11	0	0	0	0	504	618	0	471	38	8	
12	0	0	0	0	508	620	0	478	39	8	
13	0	0	0	0	512	618	0	480	39	8	
14	0	0	0	0	510	617	0	507	38	8	
15	0	0	0	0	516	618	0	522	39	8	
0	0	0	0	0	503	617	0	536	39	8	
1	0	0	0	0	509	618	0	551	38	9	
2	0	0	0	0	514	617	0	552	39	9	
3	0	0	0	0	509	616	0	563	39	8	
4	0	0	0	0	509	617	0	560	39	8	
5	0	0	0	0	502	616	0	560	39	8	
6	0	0	0	0	508	616	0	568	39	8	
7	0	0	0	0	509	615	0	558	39	8	
8	0	0	0	0	509	615	0	564	39	8	
9	0	0	0	0	512	615	0	560	38	8	
10	0	0	0	0	504	614	0	555	38	9	
11	0	0	0	0	510	615	0	540	39	9	
12	0	0	0	0	503	614	0	524	39	8	
13	0	0	0	0	497	613	0	509	39	8	
14	0	0	0	0	513	613	0	500	39	8	
15	0	0	0	0	508	611	0	494	39	8	
0	0	0	0	0	510	612	0	489	39	8	
1	0	0	0	0	507	611	0	482	38	8	
2	0	0	0	0	506	611	0	483	39	9	
3	0	0	0	0	505	610	0	477	39	9	
4	0	0	0	0	511	609	0	481	38	8	
5	0	0	0	0	510	610	0	486	39	8	
6	0	0	0	0	504	608	0	481	39	8	
7	0	0	0	0	505	608	0	486	39	8	
8	0	0	0	0	509	608	0	480	39	8	
9	0	0	0	0	509	608	0	479	38	8	
10	0	0	0	0	512	608	0	485	39	9	
11	0	0	0	0	509	607	0	482	39	9	
12	0	0	0	0	496	607	0	485	39	8	
13	0	0	0	0	507	607	0	483	39	8	
14	0	0	0	0	507	606	0	487	38	8	
15	0	0	0	0	509	607	0	489	39	8	
0	0	0	0	0	504	606	0	482	39	8	
1	0	0	0	0	511	606	0	482	38	8	
2	0	0	0	0	505	605	0	476	39	9	
3	0	0	0	0	509	605	0	481	38	9	
4	0	0	0	0	509	606	0	483	39	9	
5	0	0	0	0	507	604	0	483	39	8	
6	0	0	0	0	507	605	0	487	39	8	
7	0	0	0	0	509	604	0	516	38	8	
8	0	0	0	0	508	603	0	518	38	8	
9	0	0	0	0	510	603	0	531	38	8	
10	0	0	0	0	499	603	0	551	39	8	
11	0	0	0	0	507	603	0	559	39	9	
12	0	0	0	0	498	602	0	566	38	9	
13	0	0	0	0	514	603	0	570	39	8	
14	0	0	0	0	510	603	0	569	39	8	
15	0	0	0	0	500	603	0	576	38	8	
0	0	0	0	0	515	604	0	567	39	8	
1	0	0	0	0	505	603	0	570	38	8	
2	0	0	0	0	508	603	0	571	38	8	
3	0	0	0	0	504	603	0	569	39	9	
4	0	0	0	0	510	602	0	555	38	9	
5	0	0	0	0	505	601	0	536	39	8	
6	0	0	0	0	513	601	0	522	39	8	
7	0	0	0	0	504	600	0	512	38	8	
8	0	0	0	0	501	602	0	502	39	8	
9	0	0	0	0	502	601	0	490	38	8	
10	0	0	0	0	504	601	0	488	39	8	
11	0	0	0	0	512	601	0	481	38	9	
12	0	0	0	0	513	600	0	481	38	9	
13	0	0	0	0	509	600	0	486	39	9	
14	0	0	0	0	502	599	0	481	39	8	
15	0	0	0	0	505	599	0	487	39	8	
0	0	0	0	0	510	598	0	480	39	8	
1	0	0	0	0	504	597	0	479	38	8	
2	0	0	0	0	507	598	0	484	39	8	
3	0	0	0	0	505	597	0	482	39	8	
4	0	0	0	0	509	596	0	488	39	9	
5	0	0	0	0	505	596	0	488	39	9	
6	0	0	0	0	509	595	0	493	38	8	
7	0	0	0	0	506	595	0	495	39	8	
8	0	0	0	0	516	593	0	488	39	8	
9	0	0	0	0	505	593	0	490	38	8	
10	0	0	0	0	512	592	0	487	39	8	
11	0	0	0	0	510	591	0	488	38	8	
12	0	0	0	0	511	592	0	495	39	9	
13	0	0	0	0	507	591	0	495	39	9	
14	0	0	0	0	500	591	0	497	39	8	
15	0	0	0	0	507	591	0	495	39	8	
0	0	0	0	0	512	590	0	512	39	8	
1	0	0	0	0	503	590	0	528	38	8	
2	0	0	0	0	505	588	0	539	39	8	
3	0	0	0	0	500	586	0	560	39	8	
4	0	0	0	0	512	587	0	570	39	8	
5	0	0	0	0	507	585	0	577	39	9	
6	0	0	0	0	508	585	0	584	39	9	
7	0	0	0	0	516	583	0	577	39	8	
8	0	0	0	0	505	582	0	584	39	8	
9	0	0	0	0	517	582	0	579	38	8	
10	0	0	0	0	510	580	0	579	39	8	
11	0	0	0	0	507	579	0	586	39	8	
12	0	0	0	0	509	576	0	577	38	8	
13	0	0	0	0	505	578	0	571	39	9	
14	0	0	0	0	504	577	0	572	38	9	
15	0	0	0	0	507	576	0	569	38	8	
0	0	0	0	0	503	576	0	565	39	8	
1	0	0	0	0	510	574	0	551	38	8	
2	0	0	0	0	501	574	0	536	39	8	
3	0	0	0	0	510	571	0	522	39	8	
4	0	0	0	0	513	570	0	518	38	8	
5	0	0	0	0	512	570	0	507	39	9	
6	0	0	0	0	507	569	0	504	39	9	
7	0	0	0	0	504	568	0	500	39	8	
8	0	0	0	0	517	567	0	496	39	8	
9	0	0	0	0	506	565	0	496	38	8	
10	0	0	0	0	503	565	0	496	39	8	
11	0	0	0	0	510	563	0	490	38	8	
12	0	0	0	0	504	562	0	492	39	8	
13	0	0	0	0	499	560	0	489	39	9	
14	0	0	0	0	510	558	0	489	38	9	
15	0	0	0	0	508	557	0	493	39	9	
0	0	0	0	0	504	555	0	484	39	8	
1	0	0	0	0	508	555	0	487	38	8	
2	0	0	0	0	508	553	0	480	39	8	
3	0	0	0	0	509	551	0	483	38	8	
4	0	0	0	0	511	551	0	488	39	8	
5	0	0	0	0	507	549	0	485	39	8	
6	0	0	0	0	495	548	0	489	39	8	
7	0	0	0	0	511	545	0	485	39	9	
8	0	0	0	0	508	544	0	487	38	8	
9	0	0	0	0	510	544	0	486	38	8	
10	0	0	0	0	514	542	0	479	39	8	
11	0	0	0	0	500	540	0	484	39	8	
12	0	0	0	0	504	538	0	484	38	8	
13	0	0	0	0	510	536	0	490	39	8	
14	0	0	0	0	510	536	0	493	39	9	
15	0	0	0	0	498	533	0	492	39	9	
0	0	0	0	0	507	532	0	491	39	8	
1	0	0	0	0	513	531	0	482	38	8	
2	0	0	0	0	505	530	0	483	38	8	
3	0	0	0	0	507	529	0	488	39	8	
4	0	0	0	0	503	527	0	483	39	8	
5	0	0	0	0	503	526	0	490	39	8	
6	0	0	0	0	506	523	0	513	39	9	
7	0	0	0	0	514	520	0	531	38	9	
8	0	0	0	0	497	519	0	546	39	9	
9	0	0	0	0	506	516	0	561	38	8	
10	0	0	0	0	510	515	0	563	39	8	
11	0	0	0	0	508	512	0	570	38	8	
12	0	0	0	0	511	509	0	575	38	8	
13	0	0	0	0	504	507	0	574	39	8	
14	0	0	0	0	503	504	0	585	39	8	
15	0	0	0	0	511	502	0	576	39	9	
0	0	0	0	0	505	499	0	579	38	9	
1	0	0	0	0	511	497	0	571	38	8	
2	0	0	0	0	506	494	0	569	39	8	
3	0	0	0	0	506	492	0	574	38	8	
4	0	0	0	0	503	491	0	568	39	8	
5	0	0	0	0	512	488	0	559	39	8	
6	0	0	0	0	503	486	0	561	38	8	
7	0	0	0	0	505	483	0	567	39	9	
8	0	0	0	0	512	480	0	557	38	9	
9	0	0	0	0	501	480	0	548	38	8	
10	0	0	0	0	514	478	0	535	38	8	
11	0	0	0	0	515	476	0	516	38	8	
12	0	0	0	0	505	475	0	508	39	8	
13	0	0	0	0	500	473	0	497	39	8	
14	0	0	0	0	506	473	0	496	39	8	
15	0	0	0	0	513	471	0	485	39	9	
0	0	0	0	0	506	471	0	487	38	9	
1	0	0	0	0	508	471	0	483	38	9	
2	0	0	0	0	511	469	0	476	39	8	
3	0	0	0	0	501	468	0	480	39	8	
4	0	0	0	0	505	467	0	479	39	8	
5	0	0	0	0	508	466	0	484	39	8	
6	0	0	0	0	512	466	0	490	39	8	
7	0	0	0	0	505	465	0	485	39	8	
8	0	0	0	0	503	465	0	487	39	9	
9	0	0	0	0	511	464	0	476	38	9	
10	0	0	0	0	511	464	0	481	38	8	
11	0	0	0	0	507	464	0	482	39	8	
12	0	0	0	0	514	463	0	482	38	8	
13	0	0	0	0	504	463	0	483	39	8	
14	0	0	0	0	504	463	0	486	39	8	
15	0	0	0	0	513	462	0	481	39	8	
0	0	0	0	0	505	462	0	483	39	9	
1	0	0	0	0	503	461	0	476	38	9	
2	0	0	0	0	497	461	0	483	39	8	
3	0	0	0	0	511	461	0	477	39	8	
4	0	0	0	0	505	460	0	482	38	8	
5	0	0	0	0	506	461	0	486	39	8	
6	0	0	0	0	508	460	0	483	38	8	
7	0	0	0	0	510	461	0	487	39	8	
8	0	0	0	0	507	461	0	480	38	9	
9	0	0	0	0	512	461	0	480	38	9	
10	0	0	0	0	508	462	0	485	39	9	
11	0	0	0	0	506	462	0	481	39	8	
12	0	0	0	0	503	463	0	486	39	8	
13	0	0	0	0	509	463	0	486	39	8	
14	0	0	0	0	507	463	0	488	39	8	
15	0	0	0	0	507	464	0	491	39	8	
0	0	0	0	0	511	463	0	489	39	8	
1	0	0	0	0	506	464	0	511	38	8	
2	0	0	0	0	513	465	0	529	39	9	
3	0	0	0	0	511	465	0	545	39	8	
4	0	0	0	0	508	465	0	561	39	8	
5	0	0	0	0	511	466	0	563	39	8	
6	0	0	0	0	498	465	0	569	39	8	
7	0	0	0	0	508	466	0	565	39	8	
8	0	0	0	0	506	466	0	560	39	8	
9	0	0	0	0	510	466	0	567	38	9	
10	0	0	0	0	512	467	0	559	39	9	
11	0	0	0	0	505	467	0	567	39	8	
12	0	0	0	0	510	469	0	559	39	8	
13	0	0	0	0	504	469	0	562	39	8	
14	0	0	0	0	507	470	0	569	39	8	
15	0	0	0	0	520	469	0	561	39	8	
0	0	0	0	0	501	468	0	564	39	8	
1	0	0	0	0	514	470	0	563	38	8	
2	0	0	0	0	506	470	0	555	38	9	
3	0	0	0	0	503	470	0	542	39	9	
4	0	0	0	0	509	470	0	523	39	8	
5	0	0	0	0	506	471	0	509	39	8	
6	0	0	0	0	510	470	0	495	38	8	
7	0	0	0	0	510	470	0	492	38	8	
8	0	0	0	0	508	471	0	484	39	8	
9	0	0	0	0	506	470	0	473	38	8	
10	0	0	0	0	508	471	0	474	39	9	
11	0	0	0	0	504	471	0	471	38	9	
12	0	0	0	0	510	469	0	473	38	8	
13	0	0	0	0	506	468	0	478	39	8	
14	0	0	0	0	503	465	0	470	38	8	
15	0	0	0	0	501	463	0	477	39	8	
0	0	0	0	0	519	459	0	467	39	8	
1	0	0	0	0	512	456	0	472	38	8	
2	0	0	0	0	504	453	0	474	39	9	
3	0	0	0	0	496	449	0	470	38	9	
4	0	0	0	0	506	446	0	473	38	8	
5	0	0	0	0	511	443	0	475	39	8	
6	0	0	0	0	508	440	0	478	38	8	
7	0	0	0	0	512	437	0	482	39	8	
8	0	0	0	0	498	432	0	472	38	8	
9	0	0	0	0	497	429	0	487	38	8	
10	0	0	0	0	506	425	0	472	39	9	
11	0	0	0	0	511	422	0	477	38	9	
12	0	0	0	0	507	419	0	482	39	9	
13	0	0	0	0	509	415	0	495	39	8	
14	0	0	0	0	507	412	0	487	39	8	
15	0	0	0	0	504	409	0	512	38	8	
0	0	0	0	0	514	406	0	516	39	8	
1	0	0	0	0	508	403	0	528	38	8	
2	0	0	0	0	502	400	0	551	39	8	
3	0	0	0	0	504	397	0	558	39	9	
4	0	0	0	0	506	395	0	567	38	9	
5	0	0	0	0	512	391	0	569	39	8	
6	0	0	0	0	507	389	0	568	39	8	
7	0	0	0	0	509	387	0	588	39	8	
8	0	0	0	0	511	384	0	566	39	8	
9	0	0	0	0	506	381	0	570	38	8	
10	0	0	0	0	514	379	0	569	38	8	
11	0	0	0	0	502	377	0	572	39	9	
12	0	0	0	0	510	375	0	556	39	9	
13	0	0	0	0	498	374	0	541	39	8	
14	0	0	0	0	511	373	0	524	39	8	
15	0	0	0	0	508	371	0	518	38	8	
0	0	0	0	0	502	370	0	505	39	8	
1	0	0	0	0	507	368	0	507	38	8	
2	0	0	0	0	502	368	0	491	39	8	
3	0	0	0	0	505	366	0	488	39	8	
4	0	0	0	0	510	366	0	487	38	9	
5	0	0	0	0	515	366	0	491	39	9	
6	0	0	0	0	509	364	0	488	39	8	
7	0	0	0	0	498	364	0	493	39	8	
8	0	0	0	0	513	363	0	484	39	8	
9	0	0	0	0	512	363	0	483	38	8	
10	0	0	0	0	507	364	0	487	39	8	
11	0	0	0	0	510	363	0	486	39	8	
12	0	0	0	0	502	362	0	489	39	8	
13	0	0	0	0	509	360	0	489	39	9	
14	0	0	0	0	513	359	0	491	38	8	
15	0	0	0	0	500	359	0	495	39	8	
0	0	0	0	0	502	357	0	486	39	8	
1	0	0	0	0	508	356	0	488	38	8	
2	0	0	0	0	510	354	0	482	39	8	
3	0	0	0	0	509	354	0	486	38	8	
4	0	0	0	0	505	352	0	492	39	9	
5	0	0	0	0	508	351	0	492	39	9	
6	0	0	0	0	500	350	0	495	39	8	
7	0	0	0	0	515	348	0	497	39	8	
8	0	0	0	0	499	347	0	518	39	8	
9	0	0	0	0	512	347	0	534	38	8	
10	0	0	0	0	509	345	0	542	39	8	
11	0	0	0	0	505	345	0	580	39	8	
12	0	0	0	0	516	347	0	573	39	8	
13	0	0	0	0	510	350	0	583	39	9	
14	0	0	0	0	505	353	0	588	39	9	
15	0	0	0	0	504	356	0	595	39	8	
0	0	0	0	0	507	360	0	587	39	8	
1	0	0	0	0	514	364	0	584	38	8	
2	0	0	0	0	509	369	0	582	39	8	
3	0	0	0	0	506	373	0	591	39	8	
4	0	0	0	0	513	376	0	582	39	8	
5	0	0	0	0	499	382	0	578	39	9	
6	0	0	0	0	508	385	0	584	38	9	
7	0	0	0	0	508	391	0	602	38	8	
8	0	0	0	0	497	396	0	580	39	8	
9	0	0	0	0	512	400	0	568	38	8	
10	0	0	0	0	497	404	0	553	39	8	
11	0	0	0	0	513	408	0	540	39	8	
12	0	0	0	0	515	410	0	525	38	8	
13	0	0	0	0	503	413	0	518	39	8	
14	0	0	0	0	504	414	0	513	39	9	
15	0	0	0	0	507	416	0	511	39	8	
0	0	0	0	0	511	416	0	508	39	8	
1	0	0	0	0	510	417	0	506	38	8	
2	0	0	0	0	513	418	0	504	39	8	
3	0	0	0	0	503	418	0	501	39	8	
4	0	0	0	0	511	419	0	499	39	8	
5	0	0	0	0	508	419	0	498	39	8	
6	0	0	0	0	506	419	0	499	38	8	
7	0	0	0	0	502	420	0	500	39	9	
8	0	0	0	0	510	419	0	492	39	8	
9	0	0	0	0	507	420	0	494	38	8	
10	0	0	0	0	510	419	0	487	39	8	
11	0	0	0	0	504	421	0	489	38	8	
12	0	0	0	0	506	423	0	494	39	8	
13	0	0	0	0	510	426	0	496	39	8	
14	0	0	0	0	499	430	0	497	39	8	
15	0	0	0	0	516	433	0	496	38	9	
0	0	0	0	0	506	438	0	495	39	8	
1	0	0	0	0	508	442	0	494	38	8	
2	0	0	0	0	498	446	0	488	39	8	
3	0	0	0	0	504	450	0	492	39	8	
4	0	0	0	0	512	454	0	493	38	8	
5	0	0	0	0	510	459	0	496	39	8	
6	0	0	0	0	506	464	0	499	39	8	
7	0	0	0	0	509	468	0	507	39	9	
8	0	0	0	0	510	472	0	526	39	8	
9	0	0	0	0	520	478	0	540	38	8	
10	0	0	0	0	507	483	0	555	39	8	
11	0	0	0	0	509	487	0	568	39	8	
12	0	0	0	0	510	492	0	568	39	8	
13	0	0	0	0	506	496	0	581	39	8	
14	0	0	0	0	508	502	0	580	39	8	
15	0	0	0	0	504	506	0	581	39	8	
0	0	0	0	0	507	511	0	587	39	9	
1	0	0	0	0	503	515	0	588	38	8	
2	0	0	0	0	511	519	0	582	39	8	
3	0	0	0	0	518	524	0	595	39	8	
4	0	0	0	0	502	528	0	571	38	8	
5	0	0	0	0	503	533	0	558	39	8	
6	0	0	0	0	508	537	0	539	39	8	
7	0	0	0	0	506	542	0	526	38	8	
8	0	0	0	0	506	546	0	513	39	9	
9	0	0	0	0	507	550	0	505	38	8	
10	0	0	0	0	508	555	0	499	39	8	
11	0	0	0	0	507	558	0	496	39	8	
12	0	0	0	0	511	562	0	495	39	8	
13	0	0	0	0	504	566	0	489	39	8	
14	0	0	0	0	506	570	0	486	38	8	
15	0	0	0	0	504	575	0	488	39	9	
0	0	0	0	0	505	577	0	476	39	8	
1	0	0	0	0	507	582	0	485	38	8	
2	0	0	0	0	505	585	0	472	39	8	
3	0	0	0	0	514	588	0	476	38	8	
4	0	0	0	0	514	593	0	485	39	8	
5	0	0	0	0	507	595	0	479	39	8	
6	0	0	0	0	504	598	0	484	39	8	
7	0	0	0	0	512	601	0	481	39	8	
8	0	0	0	0	513	605	0	484	38	9	
9	0	0	0	0	504	608	0	482	38	9	
10	0	0	0	0	501	611	0	478	39	8	
11	0	0	0	0	503	614	0	483	39	8	
12	0	0	0	0	512	615	0	482	38	8	
13	0	0	0	0	512	616	0	484	39	8	
14	0	0	0	0	508	617	0	488	39	8	
15	0	0	0	0	505	616	0	491	39	8	
0	0	0	0	0	510	619	0	494	39	9	
1	0	0	0	0	508	618	0	510	38	9	
2	0	0	0	0	507	618	0	528	38	8	
3	0	0	0	0	511	617	0	545	39	8	
4	0	0	0	0	504	618	0	564	39	8	
5	0	0	0	0	499	619	0	562	39	8	
6	0	0	0	0	504	618	0	572	38	8	
7	0	0	0	0	509	618	0	568	39	8	
8	0	0	0	0	508	617	0	566	39	8	
9	0	0	0	0	513	618	0	573	38	9	
10	0	0	0	0	499	618	0	568	39	9	
11	0	0	0	0	500	616	0	568	38	8	
12	0	0	0	0	510	616	0	570	38	8	
13	0	0	0	0	510	617	0	567	39	8	
14	0	0	0	0	518	616	0	558	39	8	
15	0	0	0	0	499	615	0	568	39	8	
0	0	0	0	0	514	616	0	563	39	8	
1	0	0	0	0	504	615	0	558	38	8	
2	0	0	0	0	505	615	0	543	39	9	
3	0	0	0	0	508	615	0	528	38	8	
4	0	0	0	0	510	614	0	514	38	8	
5	0	0	0	0	508	614	0	504	39	8	
6	0	0	0	0	510	613	0	497	38	8	
7	0	0	0	0	503	614	0	494	39	8	
8	0	0	0	0	503	612	0	487	38	8	
9	0	0	0	0	505	612	0	487	38	8	
10	0	0	0	0	511	612	0	480	38	9	
11	0	0	0	0	507	611	0	496	38	8	
12	0	0	0	0	503	612	0	484	39	8	
13	0	0	0	0	508	611	0	498	39	8	
14	0	0	0	0	510	611	0	486	39	8	
15	0	0	0	0	516	611	0	480	38	8	
0	0	0	0	0	507	610	0	480	38	8	
1	0	0	0	0	508	610	0	478	38	8	
2	0	0	0	0	505	608	0	474	39	9	
3	0	0	0	0	510	608	0	480	39	8	
4	0	0	0	0	505	608	0	478	38	8	
5	0	0	0	0	508	607	0	483	39	8	
6	0	0	0	0	503	607	0	488	39	8	
7	0	0	0	0	507	606	0	486	38	8	
8	0	0	0	0	501	606	0	486	39	8	
9	0	0	0	0	509	605	0	492	38	8	
10	0	0	0	0	504	604	0	478	38	8	
11	0	0	0	0	508	604	0	486	39	9	
12	0	0	0	0	507	603	0	480	39	8	
13	0	0	0	0	503	604	0	489	39	8	
14	0	0	0	0	512	603	0	510	39	8	
15	0	0	0	0	515	603	0	531	38	8	
0	0	0	0	0	511	603	0	545	39	8	
1	0	0	0	0	502	602	0	564	38	8	
2	0	0	0	0	505	602	0	566	39	9	
3	0	0	0	0	497	602	0	573	38	8	
4	0	0	0	0	508	602	0	573	38	8	
5	0	0	0	0	512	603	0	571	39	8	
6	0	0	0	0	504	602	0	579	39	8	
7	0	0	0	0	510	602	0	569	39	8	
8	0	0	0	0	505	601	0	572	38	8	
9	0	0	0	0	502	601	0	567	38	8	
10	0	0	0	0	509	600	0	565	39	8	
11	0	0	0	0	501	601	0	571	39	9	
12	0	0	0	0	507	601	0	565	39	9	
13	0	0	0	0	506	601	0	558	39	8	
14	0	0	0	0	507	600	0	559	39	8	
15	0	0	0	0	502	600	0	564	39	8	
0	0	0	0	0	502	598	0	554	39	8	
1	0	0	0	0	508	600	0	547	38	8	
2	0	0	0	0	516	600	0	530	39	8	
3	0	0	0	0	509	600	0	515	38	8	
4	0	0	0	0	506	600	0	507	39	9	
5	0	0	0	0	512	600	0	496	39	8	
6	0	0	0	0	506	600	0	493	39	8	
7	0	0	0	0	510	600	0	483	39	8	
8	0	0	0	0	504	599	0	485	38	8	
9	0	0	0	0	508	599	0	479	38	8	
10	0	0	0	0	505	597	0	474	38	8	
11	0	0	0	0	512	597	0	479	39	8	
12	0	0	0	0	511	596	0	477	38	9	
13	0	0	0	0	505	595	0	477	39	8	
14	0	0	0	0	503	596	0	483	39	8	
15	0	0	0	0	508	594	0	479	39	8	
0	0	0	0	0	513	595	0	497	39	8	
1	0	0	0	0	512	594	0	472	38	8	
2	0	0	0	0	511	593	0	475	38	8	
3	0	0	0	0	503	594	0	480	39	8	
4	0	0	0	0	505	592	0	479	39	8	
5	0	0	0	0	499	592	0	483	39	8	
6	0	0	0	0	507	592	0	490	39	8	
7	0	0	0	0	504	591	0	482	38	8	
8	0	0	0	0	500	591	0	487	39	8	
9	0	0	0	0	506	590	0	477	38	8	
10	0	0	0	0	505	590	0	483	39	8	
11	0	0	0	0	508	590	0	478	39	8	
12	0	0	0	0	507	588	0	488	38	8	
13	0	0	0	0	508	589	0	486	39	9	
14	0	0	0	0	505	587	0	486	38	8	
15	0	0	0	0	508	585	0	488	39	8	
0	0	0	0	0	514	584	0	482	39	8	
1	0	0	0	0	512	582	0	479	38	8	
2	0	0	0	0	499	582	0	482	39	8	
3	0	0	0	0	509	580	0	481	39	8	
4	0	0	0	0	508	580	0	487	39	8	
5	0	0	0	0	510	579	0	485	39	9	
6	0	0	0	0	508	577	0	486	38	8	
7	0	0	0	0	507	577	0	490	39	8	
8	0	0	0	0	499	575	0	478	39	8	
9	0	0	0	0	506	574	0	481	38	8	
10	0	0	0	0	513	573	0	477	39	8	
11	0	0	0	0	509	572	0	479	38	8	
12	0	0	0	0	505	572	0	483	39	8	
13	0	0	0	0	509	569	0	482	39	8	
14	0	0	0	0	501	569	0	487	39	8	
15	0	0	0	0	515	568	0	482	39	8	
0	0	0	0	0	500	567	0	483	39	8	
1	0	0	0	0	505	566	0	485	38	8	
2	0	0	0	0	508	564	0	480	39	8	
3	0	0	0	0	501	563	0	489	39	8	
4	0	0	0	0	511	562	0	487	39	8	
5	0	0	0	0	506	560	0	491	39	8	
6	0	0	0	0	504	560	0	493	39	9	
7	0	0	0	0	499	556	0	496	39	8	
8	0	0	0	0	508	556	0	495	39	8	
9	0	0	0	0	510	554	0	489	38	8	
10	0	0	0	0	512	553	0	489	38	8	
11	0	0	0	0	506	552	0	497	39	8	
12	0	0	0	0	506	550	0	493	39	8	
13	0	0	0	0	508	550	0	503	39	8	
14	0	0	0	0	504	546	0	523	38	9	
15	0	0	0	0	508	545	0	549	38	8	
0	0	0	0	0	506	543	0	550	39	8	
1	0	0	0	0	499	542	0	574	38	8	
2	0	0	0	0	510	541	0	575	39	8	
3	0	0	0	0	505	539	0	585	38	8	
4	0	0	0	0	512	537	0	587	38	8	
5	0	0	0	0	506	536	0	587	39	8	
6	0	0	0	0	502	535	0	596	39	8	
7	0	0	0	0	504	534	0	590	39	8	
8	0	0	0	0	512	532	0	589	38	8	
9	0	0	0	0	508	531	0	584	38	8	
10	0	0	0	0	508	531	0	577	39	8	
11	0	0	0	0	510	529	0	585	39	8	
12	0	0	0	0	508	528	0	578	39	8	
13	0	0	0	0	503	525	0	583	39	9	
14	0	0	0	0	506	523	0	582	38	8	
15	0	0	0	0	510	521	0	580	39	8	
0	0	0	0	0	503	519	0	583	38	8	
1	0	0	0	0	504	516	0	576	38	8	
2	0	0	0	0	504	513	0	576	38	8	
3	0	0	0	0	516	511	0	579	38	8	
4	0	0	0	0	511	509	0	576	39	8	
5	0	0	0	0	499	507	0	586	39	8	
6	0	0	0	0	504	505	0	578	39	8	
7	0	0	0	0	506	502	0	582	38	8	
8	0	0	0	0	517	500	0	576	38	8	
9	0	0	0	0	501	499	0	572	38	8	
10	0	0	0	0	509	496	0	556	39	8	
11	0	0	0	0	503	493	0	541	39	8	
12	0	0	0	0	510	490	0	528	39	8	
13	0	0	0	0	507	487	0	522	39	8	
14	0	0	0	0	505	486	0	514	39	8	
15	0	0	0	0	502	483	0	510	39	8	
0	0	0	0	0	501	481	0	504	39	8	
1	0	0	0	0	515	479	0	498	38	8	
2	0	0	0	0	511	477	0	497	38	8	
3	0	0	0	0	505	476	0	498	39	8	
4	0	0	0	0	506	473	0	495	39	8	
5	0	0	0	0	507	472	0	496	39	8	
6	0	0	0	0	504	471	0	494	39	8	
7	0	0	0	0	507	470	0	492	38	8	
8	0	0	0	0	502	469	0	492	39	8	
9	0	0	0	0	518	468	0	487	38	8	
10	0	0	0	0	507	468	0	491	39	8	
11	0	0	0	0	512	467	0	488	39	8	
12	0	0	0	0	512	467	0	489	38	8	
13	0	0	0	0	505	467	0	495	39	8	
14	0	0	0	0	508	465	0	493	39	8	
15	0	0	0	0	502	465	0	508	39	8	
0	0	0	0	0	504	465	0	489	39	9	
1	0	0	0	0	513	464	0	491	38	8	
2	0	0	0	0	506	464	0	492	39	8	
3	0	0	0	0	513	463	0	493	39	8	
4	0	0	0	0	507	463	0	495	39	8	
5	0	0	0	0	510	463	0	499	39	8	
6	0	0	0	0	508	463	0	521	39	8	
7	0	0	0	0	507	462	0	542	39	8	
8	0	0	0	0	512	462	0	547	38	8	
9	0	0	0	0	502	461	0	567	38	8	
10	0	0	0	0	510	462	0	572	39	8	
11	0	0	0	0	508	462	0	578	39	8	
12	0	0	0	0	502	462	0	590	39	8	
13	0	0	0	0	509	461	0	585	39	8	
14	0	0	0	0	504	462	0	591	39	8	
15	0	0	0	0	512	462	0	583	39	8	
0	0	0	0	0	501	462	0	576	39	8	
1	0	0	0	0	507	462	0	583	38	8	
2	0	0	0	0	518	460	0	572	39	8	
3	0	0	0	0	505	462	0	568	39	8	
4	0	0	0	0	517	462	0	549	39	8	
5	0	0	0	0	508	463	0	536	39	8	
6	0	0	0	0	509	464	0	521	39	8	
7	0	0	0	0	509	464	0	513	39	8	
8	0	0	0	0	503	465	0	504	39	8	
9	0	0	0	0	511	465	0	503	38	9	
10	0	0	0	0	502	465	0	495	38	8	
11	0	0	0	0	504	466	0	495	39	8	
12	0	0	0	0	511	466	0	488	38	8	
13	0	0	0	0	511	466	0	491	39	8	
14	0	0	0	0	511	466	0	487	38	8	
15	0	0	0	0	500	467	0	486	38	8	
0	0	0	0	0	507	467	0	483	39	8	
1	0	0	0	0	503	467	0	476	38	8	
2	0	0	0	0	503	468	0	481	39	8	
3	0	0	0	0	513	468	0	478	39	8	
4	0	0	0	0	507	468	0	481	38	8	
5	0	0	0	0	500	469	0	488	39	8	
6	0	0	0	0	501	469	0	485	39	8	
7	0	0	0	0	501	470	0	490	39	8	
8	0	0	0	0	508	470	0	482	38	8	
9	0	0	0	0	510	470	0	482	38	8	
10	0	0	0	0	502	471	0	486	39	8	
11	0	0	0	0	508	470	0	485	39	8	
12	0	0	0	0	508	470	0	489	39	8	
13	0	0	0	0	513	471	0	487	39	8	
14	0	0	0	0	506	471	0	489	38	8	
15	0	0	0	0	507	471	0	502	39	8	
0	0	0	0	0	505	471	0	524	39	8	
1	0	0	0	0	511	472	0	532	38	8	
2	0	0	0	0	507	472	1	550	38	8	
3	0	0	0	0	516	471	0	556	38	8	
4	0	0	0	0	513	470	0	562	38	8	
5	0	0	0	0	498	468	0	575	39	8	
6	0	0	0	0	511	465	0	575	39	8	
7	0	0	0	0	504	463	0	576	38	8	
8	0	0	0	0	499	460	0	570	38	8	
9	0	0	0	0	510	457	0	564	38	8	
10	0	0	0	0	504	454	0	572	39	8	
11	0	0	0	0	499	451	0	566	39	9	
12	0	0	0	0	514	447	0	560	39	8	
13	0	0	0	0	510	443	0	543	39	8	
14	0	0	0	0	503	440	0	532	39	8	
15	0	0	0	0	506	436	0	521	39	8	
0	0	0	0	0	500	433	0	509	39	8	
1	0	0	0	0	512	429	0	498	38	8	
2	0	0	0	0	513	426	0	491	38	8	
3	0	0	0	0	512	423	0	486	39	9	
4	0	0	0	0	502	419	0	477	39	8	
5	0	0	0	0	497	416	0	480	39	8	
6	0	0	0	0	510	412	0	476	39	8	
7	0	0	0	0	510	409	0	474	38	8	
8	0	0	0	0	509	406	0	472	39	8	
9	0	0	0	0	503	403	0	468	38	8	
10	0	0	0	0	503	400	0	475	38	8	
11	0	0	0	0	511	397	0	472	38	9	
12	0	0	0	0	515	395	0	476	38	8	
13	0	0	0	0	508	392	0	482	39	8	
14	0	0	0	0	505	389	0	479	38	8	
15	0	0	0	0	501	387	0	484	39	8	
0	0	0	0	0	511	384	0	477	38	8	
1	0	0	0	0	502	381	0	477	38	8	
2	0	0	0	0	510	379	0	481	39	8	
3	0	0	0	0	505	376	0	478	39	8	
4	0	0	0	0	501	374	0	484	39	8	
5	0	0	0	0	521	373	0	481	39	8	
6	0	0	0	0	508	371	0	483	38	8	
7	0	0	0	0	507	370	0	485	39	8	
8	0	0	0	0	512	369	0	480	38	8	
9	0	0	0	0	507	367	0	503	38	8	
10	0	0	0	0	511	368	0	522	39	8	
11	0	0	0	0	513	367	0	540	38	8	
12	0	0	0	0	506	367	0	572	39	9	
13	0	0	0	0	509	367	0	554	39	8	
14	0	0	0	0	508	366	0	569	39	8	
15	0	0	0	0	508	366	0	568	39	8	
0	0	0	0	0	505	365	0	571	39	8	
1	0	0	0	0	506	365	0	571	38	8	
2	0	0	0	0	511	365	0	565	39	8	
3	0	0	0	0	503	364	0	573	39	8	
4	0	0	0	0	506	363	0	571	39	8	
5	0	0	0	0	507	361	0	565	39	8	
6	0	0	0	0	504	360	0	564	39	8	
7	0	0	0	0	512	360	0	567	39	8	
8	0	0	0	0	511	358	0	560	39	8	
9	0	0	0	0	509	356	0	549	38	8	
10	0	0	0	0	512	355	0	533	38	8	
11	0	0	0	0	504	354	0	520	39	8	
12	0	0	0	0	506	353	0	509	39	8	
13	0	0	0	0	503	352	0	500	39	8	
14	0	0	0	0	510	350	0	491	39	8	
15	0	0	0	0	510	350	0	487	39	8	
0	0	0	0	0	510	348	0	481	39	8	
1	0	0	0	0	511	347	0	472	38	8	
2	0	0	0	0	513	347	0	474	39	8	
3	0	0	0	0	503	347	0	468	38	8	
4	0	0	0	0	508	350	0	472	38	8	
5	0	0	0	0	504	352	0	476	39	9	
6	0	0	0	0	506	354	0	470	38	8	
7	0	0	0	0	501	358	0	475	39	8	
8	0	0	0	0	509	361	0	469	38	8	
9	0	0	0	0	505	366	0	470	38	8	
10	0	0	0	0	508	371	0	476	39	8	
11	0	0	0	0	502	375	0	469	39	8	
12	0	0	0	0	501	379	0	474	39	8	
13	0	0	0	0	512	384	0	470	39	9	
14	0	0	0	0	509	389	0	474	38	8	
15	0	0	0	0	510	393	0	476	39	8	
0	0	0	0	0	514	397	0	464	38	8	
1	0	0	0	0	505	402	0	468	38	8	
2	0	0	0	0	510	406	0	465	39	8	
3	0	0	0	0	507	409	0	470	38	8	
4	0	0	0	0	509	412	0	476	39	8	
5	0	0	0	0	505	414	0	478	39	8	
6	0	0	0	0	504	415	0	506	39	8	
7	0	0	0	0	508	417	0	521	39	8	
8	0	0	0	0	511	417	0	536	39	8	
9	0	0	0	0	513	419	0	548	38	8	
10	0	0	0	0	507	418	0	548	38	8	
11	0	0	0	0	503	419	0	559	39	8	
12	0	0	0	0	514	419	0	556	39	8	
13	0	0	0	0	512	419	0	557	39	8	
14	0	0	0	0	504	420	0	568	39	8	
15	0	0	0	0	510	420	0	560	39	8	
0	0	0	0	0	504	419	0	567	39	8	
1	0	0	0	0	508	420	0	563	38	8	
2	0	0	0	0	501	420	0	557	38	8	
3	0	0	0	0	505	422	0	541	39	8	
4	0	0	0	0	508	423	0	525	39	8	
5	0	0	0	0	507	427	0	510	39	8	
6	0	0	0	0	497	430	0	498	38	8	
7	0	0	0	0	505	435	0	492	38	8	
8	0	0	0	0	503	440	0	487	39	8	
9	0	0	0	0	508	443	0	474	38	8	
10	0	0	0	0	505	448	0	476	39	8	
11	0	0	0	0	517	452	0	471	39	8	
12	0	0	0	0	511	457	0	475	38	8	
13	0	0	0	0	501	462	0	479	39	8	
14	0	0	0	0	502	465	0	476	38	8	
15	0	0	0	0	510	471	0	482	39	8	
0	0	0	0	0	514	475	0	478	38	8	
1	0	0	0	0	511	480	0	478	38	8	
2	0	0	0	0	507	484	0	484	39	8	
3	0	0	0	0	509	488	0	476	39	8	
4	0	0	0	0	501	494	0	483	39	8	
5	0	0	0	0	507	497	0	479	39	8	
6	0	0	0	0	508	501	0	483	38	8	
7	0	0	0	0	506	506	0	485	39	8	
8	0	0	0	0	511	509	0	473	38	8	
9	0	0	0	0	501	514	0	476	38	8	
10	0	0	0	0	510	518	0	468	38	8	
11	0	0	0	0	509	523	0	472	38	8	
12	0	0	0	0	506	527	0	479	39	8	
13	0	0	0	0	508	531	0	472	39	8	
14	0	0	0	0	507	536	0	481	39	8	
15	0	0	0	0	507	540	0	496	38	8	
0	0	0	0	0	511	544	0	509	39	8	
1	0	0	0	0	505	548	0	519	38	8	
2	0	0	0	0	503	552	0	540	39	8	
3	0	0	0	0	514	556	0	548	39	8	
4	0	0	0	0	508	559	0	556	38	8	
5	0	0	0	0	511	563	0	558	39	8	
6	0	0	0	0	508	567	0	557	39	8	
7	0	0	0	0	501	571	0	564	39	8	
8	0	0	0	0	512	575	0	556	39	8	
9	0	0	0	0	504	579	0	557	38	8	
10	0	0	0	0	507	583	0	559	38	8	
11	0	0	0	0	507	587	0	556	39	8	
12	0	0	0	0	501	591	0	568	39	8	
13	0	0	0	0	505	594	0	564	39	8	
14	0	0	0	0	503	597	0	567	38	8	
15	0	0	0	0	506	600	0	560	39	8	
0	0	0	0	0	505	604	0	559	39	8	
1	0	0	0	0	502	606	0	539	38	8	
2	0	0	0	0	505	610	0	527	38	8	
3	0	0	0	0	513	611	0	509	39	8	
4	0	0	0	0	515	613	0	513	38	8	
5	0	0	0	0	510	615	0	497	39	8	
6	0	0	0	0	503	616	0	494	39	8	
7	0	0	0	0	508	617	0	489	39	8	
8	0	0	0	0	512	617	0	482	38	8	
9	0	0	0	0	511	617	0	481	38	8	
10	0	0	0	0	502	618	0	483	39	8	
11	0	0	0	0	505	617	0	479	39	8	
12	0	0	0	0	507	618	0	486	39	8	
13	0	0	0	0	509	618	0	483	39	8	
14	0	0	0	0	511	618	0	486	38	8	
15	0	0	0	0	508	619	0	488	39	8	
0	0	0	0	0	504	617	0	480	39	8	
1	0	0	0	0	503	617	0	483	38	8	
2	0	0	0	0	510	617	0	479	38	8	
3	0	0	0	0	507	616	0	481	38	8	
4	0	0	0	0	505	617	0	489	39	8	
5	0	0	0	0	509	616	0	484	39	8	
6	0	0	0	0	507	616	0	493	39	8	
7	0	0	0	0	511	615	0	486	39	8	
8	0	0	0	0	515	615	0	494	38	8	
9	0	0	0	0	506	615	0	487	38	8	
10	0	0	0	0	499	614	0	486	38	8	
11	0	0	0	0	498	614	0	486	39	8	
12	0	0	0	0	514	614	0	487	39	8	
13	0	0	0	0	510	613	0	488	39	8	
14	0	0	0	0	502	613	0	495	39	8	
15	0	0	0	0	512	612	0	491	39	8	
0	0	0	0	0	510	612	0	492	39	8	
1	0	0	0	0	517	612	0	482	38	8	
2	0	0	0	0	510	611	0	486	38	8	
3	0	0	0	0	507	611	0	491	39	8	
4	0	0	0	0	503	610	0	487	39	8	
5	0	0	0	0	504	610	0	492	39	8	
6	0	0	0	0	507	610	0	492	39	8	
7	0	0	0	0	509	608	0	491	38	8	
8	0	0	0	0	508	609	0	492	39	8	
9	0	0	0	0	510	607	0	487	38	8	
10	0	0	0	0	499	606	0	489	39	8	
11	0	0	0	0	507	606	0	490	38	8	
12	0	0	0	0	506	606	0	494	38	8	
13	0	0	0	0	510	606	0	498	39	8	
14	0	0	0	0	510	605	0	496	39	8	
15	0	0	0	0	505	605	0	500	39	8	
0	0	0	0	0	505	605	0	492	39	8	
1	0	0	0	0	509	604	0	489	38	8	
2	0	0	0	0	507	605	0	495	39	8	
3	0	0	0	0	507	604	0	490	39	8	
4	0	0	0	0	512	604	0	500	39	8	
5	0	0	0	0	506	603	0	493	39	8	
6	0	0	0	0	508	603	0	498	38	8	
7	0	0	0	0	505	604	0	496	39	8	
8	0	0	0	0	509	603	0	496	38	8	
9	0	0	0	0	508	602	0	516	38	8	
10	0	0	0	0	514	604	0	536	39	8	
11	0	0	0	0	507	602	0	552	38	8	
12	0	0	0	0	508	603	0	567	39	8	
13	0	0	0	0	506	601	0	562	39	8	
14	0	0	0	0	504	601	0	574	38	8	
15	0	0	0	0	514	602	0	568	39	8	
0	0	0	0	0	510	601	0	569	39	8	
1	0	0	0	0	511	602	0	574	38	8	
2	0	0	0	0	509	601	0	568	39	8	
3	0	0	0	0	498	601	0	575	39	8	
4	0	0	0	0	508	602	0	571	39	8	
5	0	0	0	0	507	602	0	571	39	8	
6	0	0	0	0	503	602	0	580	39	8	
7	0	0	0	0	512	602	0	569	39	8	
8	0	0	0	0	504	601	0	574	39	8	
9	0	0	0	0	516	601	0	564	38	8	
10	0	0	0	0	504	600	0	561	39	8	
11	0	0	0	0	510	600	0	567	39	8	
12	0	0	0	0	513	600	0	559	38	8	
13	0	0	0	0	505	598	0	565	39	8	
14	0	0	0	0	506	600	0	564	39	8	
15	0	0	0	0	506	598	0	562	39	8	
0	0	0	0	0	518	598	0	563	39	8	
1	0	0	0	0	513	595	0	547	38	8	
2	0	0	0	0	505	596	0	540	39	8	
3	0	0	0	0	506	596	0	523	39	9	
4	0	0	0	0	506	595	0	508	38	8	
5	0	0	0	0	505	596	0	495	39	8	
6	0	0	0	0	504	595	0	486	39	8	
7	0	0	0	0	498	595	0	484	39	8	
8	0	0	0	0	511	594	0	472	39	8	
9	0	0	0	0	510	593	0	472	38	8	
10	0	0	0	0	511	594	0	475	39	8	
11	0	0	0	0	507	592	0	476	39	8	
12	0	0	0	0	504	591	0	502	39	8	
13	0	0	0	0	514	592	0	518	39	8	
14	0	0	0	0	509	591	0	531	39	8	
15	0	0	0	0	502	591	0	545	39	8	
0	0	0	0	0	505	589	0	544	38	8	
1	0	0	0	0	502	590	0	533	38	8	
2	0	0	0	0	509	589	0	529	39	8	
3	0	0	0	0	509	589	0	508	38	8	
4	0	0	0	0	508	589	0	496	39	8	
5	0	0	0	0	507	587	0	487	39	8	
6	0	0	0	0	505	586	0	485	39	8	
7	0	0	0	0	510	585	0	477	39	8	
8	0	0	0	0	511	584	0	479	39	8	
9	0	0	0	0	504	584	0	482	38	8	
10	0	0	0	0	499	582	0	473	39	8	
11	0	0	0	0	512	581	0	476	39	8	
12	0	0	0	0	504	580	0	470	39	9	
13	0	0	0	0	514	579	0	474	39	8	
14	0	0	0	0	513	579	0	479	39	8	
15	0	0	0	0	511	576	0	472	38	8	
0	0	0	0	0	505	576	0	473	39	8	
1	0	0	0	0	518	575	0	465	38	8	
2	0	0	0	0	509	573	0	467	38	8	
3	0	0	0	0	503	573	0	468	39	8	
4	0	0	0	0	504	571	0	463	38	8	
5	0	0	0	0	505	571	0	470	39	8	
6	0	0	0	0	504	569	0	466	38	8	
7	0	0	0	0	509	568	0	467	38	8	
8	0	0	0	0	502	568	0	465	39	8	
9	0	0	0	0	507	566	0	460	38	8	
10	0	0	0	0	503	565	0	468	39	8	
11	0	0	0	0	512	564	0	464	38	8	
12	0	0	0	0	507	562	0	470	38	8	
13	0	0	0	0	504	561	0	483	39	8	
14	0	0	0	0	503	559	0	508	39	8	
15	0	0	0	0	510	558	0	518	39	8	
0	0	0	0	0	508	556	0	535	38	8	
1	0	0	0	0	505	555	0	541	38	8	
2	0	0	0	0	515	554	0	546	39	8	
3	0	0	0	0	502	553	0	556	39	8	
4	0	0	0	0	507	551	0	551	39	8	
5	0	0	0	0	496	549	0	558	39	9	
6	0	0	0	0	513	547	0	558	38	8	
7	0	0	0	0	514	546	0	559	39	8	
8	0	0	0	0	502	545	0	563	39	8	
9	0	0	0	0	506	543	0	553	38	8	
10	0	0	0	0	508	541	0	542	39	8	
11	0	0	0	0	504	540	0	525	38	8	
12	0	0	0	0	502	539	0	513	39	8	
13	0	0	0	0	507	537	0	500	39	8	
14	0	0	0	0	501	536	0	494	39	8	
15	0	0	0	0	512	535	0	483	39	8	
0	0	0	0	0	518	533	0	480	38	8	
1	0	0	0	0	509	533	0	479	38	8	
2	0	0	0	0	505	531	0	469	39	8	
3	0	0	0	0	502	529	0	472	39	8	
4	0	0	0	0	509	527	0	467	39	8	
5	0	0	0	0	513	525	0	471	39	8	
6	0	0	0	0	510	523	0	477	39	8	
7	0	0	0	0	507	520	0	468	39	8	
8	0	0	0	0	504	519	0	470	39	8	
9	0	0	0	0	504	515	0	462	38	8	
10	0	0	0	0	504	513	0	463	38	8	
11	0	0	0	0	504	511	0	468	39	8	
12	0	0	0	0	515	508	0	463	38	8	
13	0	0	0	0	501	505	0	469	39	8	
14	0	0	0	0	508	503	0	467	38	8	
15	0	0	0	0	515	500	0	470	38	8	
0	0	0	0	0	507	499	0	467	39	8	
1	0	0	0	0	510	496	0	461	38	8	
2	0	0	0	0	508	494	0	467	39	8	
3	0	0	0	0	508	491	0	465	38	8	
4	0	0	0	0	510	488	0	470	38	8	
5	0	0	0	0	506	486	0	476	39	8	
6	0	0	0	0	512	483	0	480	39	8	
7	0	0	0	0	512	481	0	504	39	8	
8	0	0	0	0	509	479	0	519	39	8	
9	0	0	0	0	505	476	0	533	38	8	
10	0	0	0	0	507	475	0	551	39	8	
11	0	0	0	0	512	472	0	552	39	8	
12	0	0	0	0	510	471	0	561	39	8	
13	0	0	0	0	513	471	0	560	39	8	
14	0	0	0	0	502	470	0	561	38	8	
15	0	0	0	0	505	468	0	565	39	8	
0	0	0	0	0	513	468	0	556	38	8	
1	0	0	0	0	510	467	0	563	38	8	
2	0	0	0	0	514	467	0	559	38	8	
3	0	0	0	0	510	467	0	552	38	8	
4	0	0	0	0	507	467	0	539	39	8	
5	0	0	0	0	506	467	0	523	39	8	
6	0	0	0	0	497	466	0	510	38	8	
7	0	0	0	0	511	465	0	498	39	8	
8	0	0	0	0	507	464	0	489	38	8	
9	0	0	0	0	510	464	0	483	38	8	
10	0	0	0	0	502	463	0	474	39	8	
11	0	0	0	0	501	463	0	478	39	8	
12	0	0	0	0	513	462	0	475	38	8	
13	0	0	0	0	515	462	0	478	39	8	
14	0	0	0	0	507	461	0	483	39	8	
15	0	0	0	0	502	461	0	479	39	8	
0	0	0	0	0	503	461	0	480	39	8	
1	0	0	0	0	512	461	0	469	38	8	
2	0	0	0	0	504	460	0	472	38	8	
3	0	0	0	0	507	461	0	478	39	8	
4	0	0	0	0	507	460	0	471	39	8	
5	0	0	0	0	504	460	0	479	39	8	
6	0	0	0	0	503	460	0	476	39	8	
7	0	0	0	0	512	460	0	475	39	8	
8	0	0	0	0	504	461	0	475	39	8	
9	0	0	0	0	500	460	0	474	38	8	
10	0	0	0	0	496	461	0	480	39	8	
11	0	0	0	0	518	461	0	477	39	8	
12	0	0	0	0	510	461	0	481	38	8	
13	0	0	0	0	504	462	0	486	39	8	
14	0	0	0	0	512	462	0	487	39	8	
15	0	0	0	0	505	463	0	496	39	8	
0	0	0	0	0	506	462	0	512	38	8	
1	0	0	0	0	511	463	0	525	38	8	
2	0	0	0	0	510	463	0	539	39	8	
3	0	0	0	0	499	463	0	563	39	8	
4	0	0	0	0	504	464	0	566	39	8	
5	0	0	0	0	508	463	0	576	39	8	
6	0	0	0	0	505	464	0	578	38	8	
7	0	0	0	0	509	464	0	579	39	8	
8	0	0	0	0	499	464	0	584	39	8	
9	0	0	0	0	506	465	0	576	38	8	
10	0	0	0	0	504	465	0	576	38	8	
11	0	0	0	0	511	465	0	577	38	8	
12	0	0	0	0	500	467	0	573	39	8	
13	0	0	0	0	508	466	0	566	39	8	
14	0	0	0	0	508	466	0	574	39	8	
15	0	0	0	0	516	467	0	573	39	8	
0	0	0	0	0	500	467	0	568	38	8	
1	0	0	0	0	508	468	0	555	38	8	
2	0	0	0	0	511	467	0	536	39	8	
3	0	0	0	0	506	469	0	526	38	8	
4	0	0	0	0	506	468	0	515	38	8	
5	0	0	0	0	516	469	0	510	39	8	
6	0	0	0	0	514	469	0	505	39	8	
7	0	0	0	0	508	469	0	504	39	8	
8	0	0	0	0	504	470	0	499	39	8	
9	0	0	0	0	512	470	0	491	38	8	
10	0	0	0	0	505	471	0	491	38	8	
11	0	0	0	0	506	470	0	496	39	8	
12	0	0	0	0	501	468	0	491	39	8	
13	0	0	0	0	499	467	0	495	39	8	
14	0	0	0	0	509	464	0	491	38	8	
15	0	0	0	0	508	462	0	492	38	8	
0	0	0	0	0	511	460	0	490	39	8	
1	0	0	0	0	503	455	0	488	38	8	
2	0	0	0	0	504	453	0	492	39	8	
3	0	0	0	0	507	449	0	514	39	8	
4	0	0	0	0	508	446	0	538	38	8	
5	0	0	0	0	509	442	0	555	39	8	
6	0	0	0	0	499	439	0	573	39	8	
7	0	0	0	0	506	435	0	576	39	8	
8	0	0	0	0	512	432	0	583	39	8	
9	0	0	0	0	515	428	0	584	38	8	
10	0	0	0	0	498	425	0	581	39	8	
11	0	0	0	0	508	422	0	567	39	8	
12	0	0	0	0	506	420	0	550	38	8	
13	0	0	0	0	505	415	0	537	39	8	
14	0	0	0	0	507	412	0	527	38	8	
15	0	0	0	0	508	409	0	518	39	8	
0	0	0	0	0	505	405	0	508	39	8	
1	0	0	0	0	508	402	0	504	38	8	
2	0	0	0	0	513	399	0	497	39	8	
3	0	0	0	0	507	396	0	498	38	8	
4	0	0	0	0	503	393	0	501	39	8	
5	0	0	0	0	504	390	0	502	39	8	
6	0	0	0	0	508	388	0	500	39	8	
7	0	0	0	0	509	384	0	501	39	8	
8	0	0	0	0	512	382	0	500	38	8	
9	0	0	0	0	510	380	0	499	38	8	
10	0	0	0	0	509	376	0	495	39	8	
11	0	0	0	0	515	374	0	497	39	8	
12	0	0	0	0	511	372	0	498	39	8	
13	0	0	0	0	504	370	0	502	39	8	
14	0	0	0	0	504	368	0	504	39	8	
15	0	0	0	0	507	367	0	505	39	8	
0	0	0	0	0	512	367	0	504	39	8	
1	0	0	0	0	517	367	0	496	38	8	
2	0	0	0	0	505	366	0	498	38	8	
3	0	0	0	0	504	366	0	499	39	8	
4	0	0	0	0	507	365	0	499	39	8	
5	0	0	0	0	509	365	0	500	39	8	
6	0	0	0	0	505	364	0	502	38	8	
7	0	0	0	0	513	363	0	517	38	8	
8	0	0	0	0	506	362	0	539	39	8	
9	0	0	0	0	511	362	0	547	38	8	
10	0	0	0	0	506	361	0	566	38	8	
11	0	0	0	0	512	361	0	570	38	8	
12	0	0	0	0	508	360	0	579	38	8	
13	0	0	0	0	504	359	0	591	39	8	
14	0	0	0	0	515	358	0	588	38	8	
15	0	0	0	0	503	357	0	593	38	8	
0	0	0	0	0	519	356	0	587	39	8	
1	0	0	0	0	510	355	0	583	38	8	
2	0	0	0	0	500	353	0	592	39	8	
3	0	0	0	0	510	351	0	581	39	8	
4	0	0	0	0	510	351	0	574	38	8	
5	0	0	0	0	503	350	0	556	39	8	
6	0	0	0	0	504	350	0	540	39	8	
7	0	0	0	0	507	349	0	524	39	8	
8	0	0	0	0	507	347	0	514	39	8	
9	0	0	0	0	503	347	0	505	38	8	
10	0	0	0	0	510	345	0	500	39	8	
11	0	0	0	0	514	345	0	497	38	8	
12	0	0	0	0	506	348	0	498	39	8	
13	0	0	0	0	506	350	0	494	39	8	
14	0	0	0	0	504	353	0	497	39	8	
15	0	0	0	0	510	357	0	491	39	8	
0	0	0	0	0	512	361	0	493	38	8	
1	0	0	0	0	504	366	0	490	38	8	
2	0	0	0	0	512	369	0	486	39	8	
3	0	0	0	0	509	374	0	490	39	8	
4	0	0	0	0	511	379	0	492	39	9	
5	0	0	0	0	509	383	0	497	39	8	
6	0	0	0	0	512	387	0	499	39	8	
7	0	0	0	0	505	391	0	499	39	8	
8	0	0	0	0	503	397	0	497	39	8	
9	0	0	0	0	512	402	0	489	38	8	
10	0	0	0	0	507	406	0	489	38	8	
11	0	0	0	0	505	409	0	491	39	8	
12	0	0	0	0	501	412	0	490	39	8	
13	0	0	0	0	497	414	0	493	39	8	
14	0	0	0	0	510	415	0	492	39	8	
15	0	0	0	0	513	416	0	491	38	8	
0	0	0	0	0	510	417	0	490	39	8	
1	0	0	0	0	512	417	0	487	38	8	
2	0	0	0	0	496	418	0	489	39	8	
3	0	0	0	0	508	418	0	488	39	8	
4	0	0	0	0	508	419	0	491	38	8	
5	0	0	0	0	509	420	0	495	39	9	
6	0	0	0	0	510	420	0	495	38	8	
7	0	0	0	0	502	421	0	499	39	8	
8	0	0	0	0	511	420	0	491	38	8	
9	0	0	0	0	502	420	0	489	38	8	
10	0	0	0	0	508	421	0	490	39	8	
11	0	0	0	0	510	422	0	489	39	8	
12	0	0	0	0	504	425	0	492	38	8	
13	0	0	0	0	505	428	0	489	39	9	
14	0	0	0	0	510	432	0	489	38	8	
15	0	0	0	0	511	436	0	492	39	8	
0	0	0	0	0	510	439	0	483	38	8	
1	0	0	0	0	508	444	0	486	38	8	
2	0	0	0	0	506	448	0	479	38	8	
3	0	0	0	0	508	452	0	479	38	8	
4	0	0	0	0	504	457	0	484	39	8	
5	0	0	0	0	503	461	0	482	39	8	
6	0	0	0	0	506	466	0	486	39	8	
7	0	0	0	0	508	471	0	479	38	8	
8	0	0	0	0	508	476	0	479	38	8	
9	0	0	0	0	511	481	0	479	38	8	
10	0	0	0	0	508	484	0	471	39	8	
11	0	0	0	0	507	490	0	476	39	8	
12	0	0	0	0	513	495	0	473	38	8	
13	0	0	0	0	513	498	0	478	39	8	
14	0	0	0	0	511	502	0	481	39	9	
15	0	0	0	0	507	506	0	476	39	8	
0	0	0	0	0	503	511	0	478	39	8	
1	0	0	0	0	512	516	0	469	38	8	
2	0	0	0	0	504	521	0	471	38	8	
3	0	0	0	0	509	525	0	483	39	8	
4	0	0	0	0	507	530	0	508	39	8	
5	0	0	0	0	509	535	0	520	39	8	
6	0	0	0	0	502	538	0	535	38	8	
7	0	0	0	0	502	543	0	543	39	8	
8	0	0	0	0	511	547	0	544	39	8	
9	0	0	0	0	496	551	0	560	38	8	
10	0	0	0	0	502	556	0	558	39	8	
11	0	0	0	0	517	560	0	563	38	8	
12	0	0	0	0	510	563	0	563	38	8	
13	0	0	0	0	507	567	0	561	39	8	
14	0	0	0	0	500	571	0	573	39	8	
15	0	0	0	0	510	575	0	564	39	9	
0	0	0	0	0	500	578	0	564	39	8	
1	0	0	0	0	504	582	0	558	38	8	
2	0	0	0	0	507	586	0	556	39	8	
3	0	0	0	0	504	589	0	560	39	8	
4	0	0	0	0	514	592	0	553	39	8	
5	0	0	0	0	500	596	0	555	39	8	
6	0	0	0	0	504	599	0	556	39	8	
7	0	0	0	0	517	601	0	551	39	8	
8	0	0	0	0	506	605	0	572	38	8	
9	0	0	0	0	507	609	0	547	38	8	
10	0	0	0	0	505	611	0	564	38	8	
11	0	0	0	0	518	614	0	547	38	8	
12	0	0	0	0	509	616	0	548	39	8	
13	0	0	0	0	503	617	0	553	39	8	
14	0	0	0	0	510	619	0	550	39	8	
15	0	0	0	0	510	619	0	551	38	8	
0	0	0	0	0	507	619	0	550	38	8	
1	0	0	0	0	499	620	0	539	38	8	
2	0	0	0	0	508	619	0	526	39	8	
3	0	0	0	0	504	619	0	509	39	8	
4	0	0	0	0	509	617	0	495	39	8	
5	0	0	0	0	503	618	0	491	39	8	
6	0	0	0	0	504	620	0	485	39	8	
7	0	0	0	0	506	619	0	475	39	8	
8	0	0	0	0	512	619	0	476	39	8	
9	0	0	0	0	511	618	0	466	38	8	
10	0	0	0	0	502	618	0	468	38	8	
11	0	0	0	0	510	618	0	472	39	8	
12	0	0	0	0	497	617	0	464	39	8	
13	0	0	0	0	504	617	0	469	39	8	
14	0	0	0	0	513	617	0	466	39	8	
15	0	0	0	0	508	616	0	466	38	8	
0	0	0	0	0	514	616	0	461	39	9	
1	0	0	0	0	505	615	0	460	38	8	
2	0	0	0	0	501	615	0	465	39	8	
3	0	0	0	0	505	615	0	463	38	8	
4	0	0	0	0	501	614	0	468	38	8	
5	0	0	0	0	508	614	0	473	39	8	
6	0	0	0	0	505	613	0	470	38	8	
7	0	0	0	0	507	612	0	478	39	8	
8	0	0	0	0	512	613	0	469	39	9	
9	0	0	0	0	515	612	0	471	38	8	
10	0	0	0	0	505	614	0	478	39	8	
11	0	0	0	0	513	613	0	471	39	8	
12	0	0	0	0	503	612	0	476	39	8	
13	0	0	0	0	513	612	0	473	39	8	
14	0	0	0	0	502	612	0	494	38	8	
15	0	0	0	0	503	611	0	517	39	8	
0	0	0	0	0	508	609	0	527	39	8	
1	0	0	0	0	507	609	0	543	38	8	
2	0	0	0	0	515	609	0	550	39	8	
3	0	0	0	0	507	608	0	557	39	8	
4	0	0	0	0	504	608	0	572	39	8	
5	0	0	0	0	517	607	0	568	39	8	
6	0	0	0	0	504	607	0	573	39	8	
7	0	0	0	0	513	607	0	563	39	8	
8	0	0	0	0	500	605	0	560	39	8	
9	0	0	0	0	514	605	0	562	38	8	
10	0	0	0	0	517	603	0	552	38	8	
11	0	0	0	0	506	605	0	543	39	8	
12	0	0	0	0	519	604	0	528	39	8	
13	0	0	0	0	505	604	0	518	39	8	
14	0	0	0	0	509	605	0	523	39	8	
15	0	0	0	0	503	604	0	499	39	8	
0	0	0	0	0	508	603	0	494	39	8	
1	0	0	0	0	506	603	0	489	38	8	
2	0	0	0	0	511	603	0	489	38	8	
3	0	0	0	0	505	603	0	492	39	8	
4	0	0	0	0	505	602	0	484	39	8	
5	0	0	0	0	503	602	0	487	39	8	
6	0	0	0	0	504	601	0	484	39	8	
7	0	0	0	0	506	601	0	483	38	8	
8	0	0	0	0	511	601	0	486	39	8	
9	0	0	0	0	500	600	0	482	38	8	
10	0	0	0	0	510	601	0	487	38	8	
11	0	0	0	0	508	601	0	485	38	8	
12	0	0	0	0	505	601	0	489	38	8	
13	0	0	0	0	513	601	0	494	39	8	
14	0	0	0	0	508	600	0	493	39	8	
15	0	0	0	0	505	600	0	498	39	8	
0	0	0	0	0	511	600	0	491	39	8	
1	0	0	0	0	508	600	0	489	38	8	
2	0	0	0	0	509	600	0	494	39	8	
3	0	0	0	0	504	600	0	492	39	8	
4	0	0	0	0	507	600	0	496	39	8	
5	0	0	0	0	507	600	0	494	39	8	
6	0	0	0	0	504	600	0	495	38	8	
7	0	0	0	0	508	599	0	507	39	8	
8	0	0	0	0	508	599	0	529	39	8	
9	0	0	0	0	508	599	0	537	38	8	
10	0	0	0	0	505	597	0	554	38	8	
11	0	0	0	0	508	596	0	565	38	8	
12	0	0	0	0	511	596	0	572	38	8	
13	0	0	0	0	501	596	0	585	39	8	
14	0	0	0	0	504	595	0	582	39	8	
15	0	0	0	0	511	594	0	583	38	8	
0	0	0	0	0	513	594	0	577	38	8	
1	0	0	0	0	509	593	0	571	38	8	
2	0	0	0	0	501	592	0	575	39	8	
3	0	0	0	0	502	592	0	566	39	8	
4	0	0	0	0	507	591	0	570	38	8	
5	0	0	0	0	507	591	0	569	39	8	
6	0	0	0	0	504	590	0	568	38	8	
7	0	0	0	0	504	590	0	575	39	8	
8	0	0	0	0	509	590	0	565	39	8	
9	0	0	0	0	508	588	0	557	38	8	
10	0	0	0	0	509	588	0	540	38	8	
11	0	0	0	0	502	588	0	528	39	8	
12	0	0	0	0	508	587	0	516	39	8	
13	0	0	0	0	496	586	0	508	39	8	
14	0	0	0	0	512	586	0	498	39	8	
15	0	0	0	0	509	584	0	497	38	8	
0	0	0	0	0	507	583	0	491	39	8	
1	0	0	0	0	504	582	0	486	38	8	
2	0	0	0	0	510	582	0	485	39	8	
3	0	0	0	0	516	581	0	481	39	9	
4	0	0	0	0	512	580	0	480	38	8	
5	0	0	0	0	504	579	0	486	39	8	
6	0	0	0	0	499	577	0	479	39	8	
7	0	0	0	0	510	577	0	487	39	8	
8	0	0	0	0	522	576	0	477	39	8	
9	0	0	0	0	508	575	0	481	38	8	
10	0	0	0	0	504	574	0	482	39	8	
11	0	0	0	0	510	572	0	480	39	8	
12	0	0	0	0	500	571	0	484	39	8	
13	0	0	0	0	506	570	0	490	39	8	
14	0	0	0	0	506	569	0	480	38	8	
15	0	0	0	0	504	569	0	491	39	8	
0	0	0	0	0	503	567	0	477	39	8	
1	0	0	0	0	508	567	0	483	38	8	
2	0	0	0	0	515	565	0	477	39	8	
3	0	0	0	0	509	563	0	482	38	8	
4	0	0	0	0	507	563	0	486	39	9	
5	0	0	0	0	510	560	0	496	39	8	
6	0	0	0	0	506	558	0	522	39	8	
7	0	0	0	0	512	558	0	537	39	8	
8	0	0	0	0	512	556	0	549	39	8	
9	0	0	0	0	505	555	0	564	38	8	
10	0	0	0	0	513	553	0	562	39	8	
11	0	0	0	0	505	551	0	576	39	8	
12	0	0	0	0	510	550	0	570	39	8	
13	0	0	0	0	512	548	0	579	39	8	
14	0	0	0	0	502	547	0	582	39	8	
15	0	0	0	0	510	546	0	573	39	8	
0	0	0	0	0	502	543	0	578	39	8	
1	0	0	0	0	520	543	0	579	38	8	
2	0	0	0	0	505	541	0	569	38	8	
3	0	0	0	0	505	541	0	556	39	8	
4	0	0	0	0	504	539	0	534	38	8	
5	0	0	0	0	503	537	0	536	39	8	
6	0	0	0	0	509	536	0	506	38	8	
7	0	0	0	0	515	533	0	499	39	8	
8	0	0	0	0	506	534	0	495	39	8	
9	0	0	0	0	506	531	0	486	38	8	
10	0	0	0	0	504	531	0	486	39	8	
11	0	0	0	0	507	529	0	481	38	8	
12	0	0	0	0	502	527	0	482	38	8	
13	0	0	0	0	511	526	0	487	39	9	
14	0	0	0	0	504	522	0	480	38	8	
15	0	0	0	0	505	520	0	485	39	8	
0	0	0	0	0	512	518	0	477	38	8	
1	0	0	0	0	503	516	0	477	38	8	
2	0	0	0	0	508	514	0	479	39	8	
3	0	0	0	0	511	511	0	476	39	8	
4	0	0	0	0	505	509	0	481	38	8	
5	0	0	0	0	510	507	0	479	39	9	
6	0	0	0	0	509	504	0	480	38	8	
7	0	0	0	0	510	503	0	484	39	8	
8	0	0	0	0	509	499	0	475	38	8	
9	0	0	0	0	497	498	0	479	38	8	
10	0	0	0	0	513	495	0	472	39	8	
11	0	0	0	0	512	492	0	477	38	8	
12	0	0	0	0	506	490	0	480	39	8	
13	0	0	0	0	499	488	0	476	39	8	
14	0	0	0	0	502	486	0	483	39	9	
15	0	0	0	0	498	483	0	500	38	8	
0	0	0	0	0	515	481	0	515	39	8	
1	0	0	0	0	511	479	0	527	38	8	
2	0	0	0	0	500	476	0	547	39	8	
3	0	0	0	0	504	475	0	553	39	8	
4	0	0	0	0	511	473	0	561	38	8	
5	0	0	0	0	512	471	0	563	39	8	
6	0	0	0	0	509	470	0	561	39	8	
7	0	0	0	0	505	470	0	566	39	8	
8	0	0	0	0	502	469	0	557	39	8	
9	0	0	0	0	505	468	0	557	38	8	
10	0	0	0	0	506	467	0	557	38	8	
11	0	0	0	0	499	467	0	556	39	8	
12	0	0	0	0	513	466	0	543	38	8	
13	0	0	0	0	506	466	0	524	39	8	
14	0	0	0	0	514	464	0	508	39	8	
15	0	0	0	0	514	464	0	500	39	8	
0	0	0	0	0	513	465	0	491	39	8	
1	0	0	0	0	500	464	0	478	38	8	
2	0	0	0	0	504	464	0	477	39	8	
3	0	0	0	0	507	463	0	470	39	8	
4	0	0	0	0	503	463	0	470	38	8	
5	0	0	0	0	507	463	0	472	39	8	
6	0	0	0	0	499	462	0	466	38	8	
7	0	0	0	0	502	462	0	471	39	8	
8	0	0	0	0	519	462	0	462	38	8	
9	0	0	0	0	515	462	0	464	38	8	
10	0	0	0	0	505	462	0	466	39	8	
11	0	0	0	0	503	461	0	462	38	8	
12	0	0	0	0	504	461	0	469	39	8	
13	0	0	0	0	510	460	0	464	39	8	
14	0	0	0	0	503	460	0	471	38	8	
15	0	0	0	0	500	462	0	470	39	9	
0	0	0	0	0	502	460	0	465	38	8	
1	0	0	0	0	506	461	0	463	38	8	
2	0	0	0	0	505	461	0	460	38	8	
3	0	0	0	0	508	462	0	465	38	8	
4	0	0	0	0	509	463	0	470	39	8	
5	0	0	0	0	510	462	0	465	39	8	
6	0	0	0	0	503	463	0	472	39	8	
7	0	0	0	0	512	463	0	465	39	8	
8	0	0	0	0	504	463	0	486	39	8	
9	0	0	0	0	508	464	0	503	38	8	
10	0	0	0	0	514	464	0	515	39	8	
11	0	0	0	0	508	463	0	532	39	8	
12	0	0	0	0	511	465	0	541	39	8	
13	0	0	0	0	512	465	0	549	39	8	
14	0	0	0	0	507	465	0	559	39	8	
15	0	0	0	0	514	465	0	551	39	8	
0	0	0	0	0	500	465	0	558	39	8	
1	0	0	0	0	510	466	0	549	38	8	
2	0	0	0	0	504	466	0	551	38	8	
3	0	0	0	0	508	467	0	557	39	8	
4	0	0	0	0	505	467	0	551	39	8	
5	0	0	0	0	504	467	0	558	39	8	
6	0	0	0	0	513	468	0	558	39	8	
7	0	0	0	0	514	467	0	556	39	8	
8	0	0	0	0	511	468	0	558	39	8	
9	0	0	0	0	513	467	0	546	38	8	
10	0	0	0	0	502	469	0	536	39	8	
11	0	0	0	0	509	469	0	521	39	8	
12	0	0	0	0	508	469	0	504	38	8	
13	0	0	0	0	509	469	0	494	39	8	
14	0	0	0	0	508	469	0	483	39	8	
15	0	0	0	0	496	470	0	483	39	8	
0	0	0	0	0	512	470	0	472	39	8	
1	0	0	0	0	505	470	0	488	38	8	
2	0	0	0	0	511	471	0	512	39	8	
3	0	0	0	0	505	468	0	521	39	8	
4	0	0	0	0	506	469	0	526	39	8	
5	0	0	0	0	506	467	0	534	39	8	
6	0	0	0	0	507	464	0	537	38	8	
7	0	0	0	0	513	463	0	542	39	8	
8	0	0	0	0	513	459	0	530	39	8	
9	0	0	0	0	502	456	0	515	38	8	
10	0	0	0	0	507	452	0	497	39	8	
11	0	0	0	0	508	449	0	502	38	8	
12	0	0	0	0	513	447	0	483	39	8	
13	0	0	0	0	509	443	0	490	39	8	
14	0	0	0	0	508	440	0	476	39	8	
15	0	0	0	0	509	436	0	479	39	8	
0	0	0	0	0	507	433	0	467	38	8	
1	0	0	0	0	505	429	0	466	38	8	
2	0	0	0	0	509	425	0	459	39	8	
3	0	0	0	0	503	422	0	465	39	8	
4	0	0	0	0	513	419	0	463	38	8	
5	0	0	0	0	508	416	0	469	39	8	
6	0	0	0	0	508	413	0	475	39	8	
7	0	0	0	0	500	409	0	470	38	8	
8	0	0	0	0	501	407	0	472	39	8	
9	0	0	0	0	513	403	0	465	38	8	
10	0	0	0	0	507	401	0	468	38	8	
11	0	0	0	0	511	398	0	475	39	8	
12	0	0	0	0	505	395	0	468	39	8	
13	0	0	0	0	499	392	0	476	39	8	
14	0	0	0	0	510	389	0	473	39	8	
15	0	0	0	0	501	387	0	473	38	8	
0	0	0	0	0	507	384	0	473	39	8	
1	0	0	0	0	509	381	0	470	38	8	
2	0	0	0	0	504	379	0	476	39	8	
3	0	0	0	0	507	376	0	474	39	8	
4	0	0	0	0	507	375	0	478	38	8	
5	0	0	0	0	513	373	0	483	39	8	
6	0	0	0	0	509	371	0	480	39	8	
7	0	0	0	0	505	371	0	486	39	8	
8	0	0	0	0	511	369	0	477	39	8	
9	0	0	0	0	514	369	0	478	38	8	
10	0	0	0	0	509	368	0	483	39	8	
11	0	0	0	0	507	367	0	477	39	8	
12	0	0	0	0	505	366	0	483	39	8	
13	0	0	0	0	506	365	0	479	39	8	
14	0	0	0	0	505	365	0	503	39	8	
15	0	0	0	0	508	364	0	522	39	8	
0	0	0	0	0	508	364	0	531	39	8	
1	0	0	0	0	507	363	0	544	38	8	
2	0	0	0	0	512	363	0	553	39	8	
3	0	0	0	0	509	362	0	560	39	8	
4	0	0	0	0	508	361	0	572	39	8	
5	0	0	0	0	507	361	0	565	39	8	
6	0	0	0	0	509	359	0	574	39	8	
7	0	0	0	0	512	359	0	568	39	8	
8	0	0	0	0	503	357	0	566	39	8	
9	0	0	0	0	507	356	0	568	38	8	
10	0	0	0	0	511	355	0	560	38	8	
11	0	0	0	0	503	354	0	569	39	8	
12	0	0	0	0	513	353	0	567	39	8	
13	0	0	0	0	507	351	0	561	39	8	
14	0	0	0	0	512	350	0	549	39	8	
15	0	0	0	0	506	349	0	531	38	8	
0	0	0	0	0	504	348	0	517	39	8	
1	0	0	0	0	511	347	0	497	38	8	
2	0	0	0	0	508	346	0	492	38	8	
3	0	0	0	0	504	347	0	490	39	8	
4	0	0	0	0	500	348	0	484	38	8	
5	0	0	0	0	507	351	0	487	39	8	
6	0	0	0	0	513	354	0	485	39	8	
7	0	0	0	0	508	358	0	483	38	8	
8	0	0	0	0	502	361	0	485	39	8	
9	0	0	0	0	502	365	0	481	38	8	
10	0	0	0	0	505	370	0	487	39	8	
11	0	0	0	0	507	374	0	486	38	8	
12	0	0	0	0	509	379	0	492	38	8	
13	0	0	0	0	507	384	0	496	39	8	
14	0	0	0	0	509	388	0	495	38	8	
15	0	0	0	0	502	393	0	499	39	8	
0	0	0	0	0	514	397	0	491	38	8	
1	0	0	0	0	508	403	0	488	38	8	
2	0	0	0	0	509	408	0	492	39	8	
3	0	0	0	0	508	410	0	494	39	8	
4	0	0	0	0	510	413	0	498	39	8	
5	0	0	0	0	511	415	0	497	39	8	
6	0	0	0	0	505	416	0	519	39	8	
7	0	0	0	0	500	417	0	538	39	8	
8	0	0	0	0	511	418	0	545	38	8	
9	0	0	0	0	502	418	0	559	38	8	
10	0	0	0	0	508	419	0	567	39	8	
11	0	0	0	0	506	419	0	573	39	8	
12	0	0	0	0	512	420	0	583	39	8	
13	0	0	0	0	507	420	0	574	39	8	
14	0	0	0	0	509	419	0	581	39	8	
15	0	0	0	0	516	420	0	577	39	8	
0	0	0	0	0	508	420	0	576	39	8	
1	0	0	0	0	511	421	0	579	38	8	
2	0	0	0	0	509	420	0	568	39	8	
3	0	0	0	0	507	422	0	577	39	8	
4	0	0	0	0	508	424	0	573	39	8	
5	0	0	0	0	500	427	0	571	39	8	
6	0	0	0	0	514	431	0	567	39	8	
7	0	0	0	0	502	435	0	574	39	8	
8	0	0	0	0	511	440	0	566	39	8	
9	0	0	0	0	513	444	0	557	38	8	
10	0	0	0	0	508	449	0	541	38	8	
11	0	0	0	0	511	453	0	529	39	8	
12	0	0	0	0	505	457	0	516	39	8	
13	0	0	0	0	506	462	0	508	39	8	
14	0	0	0	0	505	466	0	500	38	8	
15	0	0	0	0	505	471	0	497	38	8	
0	0	0	0	0	504	476	0	494	39	8	
1	0	0	0	0	511	480	0	485	38	8	
2	0	0	0	0	505	484	0	488	39	8	
3	0	0	0	0	510	489	0	482	38	8	
4	0	0	0	0	510	494	0	488	38	8	
5	0	0	0	0	508	499	0	490	39	8	
6	0	0	0	0	510	503	0	489	38	8	
7	0	0	0	0	506	508	0	490	39	8	
8	0	0	0	0	515	512	0	482	38	8	
9	0	0	0	0	508	517	0	479	38	8	
10	0	0	0	0	511	522	0	482	39	8	
11	0	0	0	0	512	526	0	479	39	8	
12	0	0	0	0	502	530	0	485	39	8	
13	0	0	0	0	501	535	0	480	39	9	
14	0	0	0	0	503	539	0	484	38	8	
15	0	0	0	0	504	544	0	486	39	8	
0	0	0	0	0	503	547	0	477	39	8	
1	0	0	0	0	512	552	0	478	38	8	
2	0	0	0	0	515	556	0	472	38	8	
3	0	0	0	0	505	560	0	475	38	8	
4	0	0	0	0	502	565	0	481	39	8	
5	0	0	0	0	508	567	0	486	39	8	
6	0	0	0	0	509	570	0	515	39	8	
7	0	0	0	0	515	575	0	528	39	8	
8	0	0	0	0	507	578	0	543	39	8	
9	0	0	0	0	496	582	0	558	38	8	
10	0	0	0	0	507	585	0	559	39	8	
11	0	0	0	0	507	588	0	571	39	8	
12	0	0	0	0	515	592	0	568	39	8	
13	0	0	0	0	507	596	0	572	39	8	
14	0	0	0	0	502	600	0	580	39	9	
15	0	0	0	0	511	603	0	571	39	8	
0	0	0	0	0	507	605	0	577	39	8	
1	0	0	0	0	506	609	0	574	38	8	
2	0	0	0	0	505	612	0	565	38	8	
3	0	0	0	0	508	615	0	549	39	8	
4	0	0	0	0	506	616	0	531	39	8	
5	0	0	0	0	510	618	0	517	39	8	
6	0	0	0	0	507	619	0	503	39	9	
7	0	0	0	0	509	618	0	498	38	8	
8	0	0	0	0	499	620	0	490	39	8	
9	0	0	0	0	508	620	0	483	38	8	
10	0	0	0	0	502	619	0	482	39	8	
11	0	0	0	0	515	619	0	479	39	8	
12	0	0	0	0	511	618	0	479	38	8	
13	0	0	0	0	507	619	0	490	39	8	
14	0	0	0	0	504	618	0	483	39	8	
15	0	0	0	0	507	618	0	487	39	8	
0	0	0	0	0	512	618	0	480	39	8	
1	0	0	0	0	511	617	0	481	38	8	
2	0	0	0	0	511	618	0	485	39	8	
3	0	0	0	0	508	616	0	480	39	8	
4	0	0	0	0	501	616	0	485	39	8	
5	0	0	0	0	509	616	0	483	39	8	
6	0	0	0	0	501	615	0	483	38	8	
7	0	0	0	0	508	616	0	485	39	9	
8	0	0	0	0	505	615	0	476	39	8	
9	0	0	0	0	505	615	0	478	38	8	
10	0	0	0	0	506	615	0	472	38	8	
11	0	0	0	0	512	614	0	475	38	8	
12	0	0	0	0	506	615	0	480	39	8	
13	0	0	0	0	506	613	0	477	39	8	
14	0	0	0	0	505	614	0	484	39	8	
15	0	0	0	0	509	613	0	502	38	8	
0	0	0	0	0	512	612	0	515	39	8	
1	0	0	0	0	508	611	0	525	38	8	
2	0	0	0	0	503	611	0	547	39	8	
3	0	0	0	0	506	611	0	553	39	8	
4	0	0	0	0	505	610	0	560	38	8	
5	0	0	0	0	508	609	0	564	39	8	
6	0	0	0	0	509	609	0	563	39	8	
7	0	0	0	0	497	609	0	570	38	8	
8	0	0	0	0	506	609	0	562	39	9	
9	0	0	0	0	503	609	0	565	38	9	
10	0	0	0	0	514	608	0	565	38	8	
11	0	0	0	0	511	608	0	564	39	8	
12	0	0	0	0	512	608	0	550	39	8	
13	0	0	0	0	506	608	0	532	39	8	
14	0	0	0	0	508	606	0	516	39	8	
15	0	0	0	0	505	606	0	508	39	8	
0	0	0	0	0	504	607	0	496	39	9	
1	0	0	0	0	500	606	0	483	38	8	
2	0	0	0	0	507	606	0	482	39	8	
3	0	0	0	0	510	605	0	474	39	8	
4	0	0	0	0	510	605	0	476	38	8	
5	0	0	0	0	509	605	0	479	39	8	
6	0	0	0	0	505	604	0	472	39	8	
7	0	0	0	0	506	605	0	477	39	8	
8	0	0	0	0	513	604	0	469	39	9	
9	0	0	0	0	511	604	0	469	38	8	
10	0	0	0	0	507	605	0	473	39	8	
11	0	0	0	0	503	604	0	469	39	8	
12	0	0	0	0	505	604	0	475	39	8	
13	0	0	0	0	513	603	0	473	39	8	
14	0	0	0	0	512	603	0	476	38	8	
15	0	0	0	0	499	604	0	482	39	8	
0	0	0	0	0	504	602	0	472	39	8	
1	0	0	0	0	499	603	0	477	38	8	
2	0	0	0	0	509	602	0	471	39	8	
3	0	0	0	0	502	601	0	478	38	8	
4	0	0	0	0	515	602	0	484	39	8	
5	0	0	0	0	508	601	0	479	39	8	
6	0	0	0	0	500	601	0	482	39	8	
