# OpenSignals Text File Format. Version 1
# {"98:D3:51:FD:71:01": {"position": 0, "device": "bitalino_rev", "device name": "98:D3:51:FD:71:01", "device connection": "BTH98:D3:51:FD:71:01", "sampling rate": 1000, "resolution": [4, 1, 1, 1, 1, 10, 10, 10, 10, 6, 6], "firmware version": 1282, "comments": "", "keywords": "", "mode": 0, "sync interval": 2, "date": "2024-4-19", "time": "12:16:31.878", "channels": [1, 2, 3, 4, 5, 6], "sensor": ["RAW", "RAW", "RAW", "RAW", "RAW", "RAW"], "label": ["A1", "A2", "A3", "A4", "A5", "A6"], "column": ["nSeq", "I1", "I2", "O1", "O2", "A1", "A2", "A3", "A4", "A5", "A6"], "special": [{}, {}, {}, {}, {}, {}], "digital IO": [0, 0, 1, 1]}}
# EndOfHeader
0	0	0	0	0	509	503	0	486	39	8	
1	0	0	0	0	500	503	0	484	39	8	
2	0	0	0	0	514	503	0	482	39	8	
3	0	0	0	0	504	503	0	481	39	8	
4	0	0	0	0	514	503	0	481	39	8	
5	0	0	0	0	506	504	0	482	38	8	
6	0	0	0	0	508	504	0	481	38	8	
7	0	0	0	0	506	504	0	482	39	8	
8	0	0	0	0	507	504	0	478	38	8	
9	0	0	0	0	518	504	0	476	39	8	
10	0	0	0	0	503	504	0	475	38	8	
11	0	0	0	0	512	504	0	475	38	8	
12	0	0	0	0	507	504	0	476	39	8	
13	0	0	0	0	506	504	0	474	38	8	
14	0	0	0	0	501	504	0	472	39	8	
15	0	0	0	0	501	504	0	465	39	8	
0	0	0	0	0	505	503	0	464	39	8	
1	0	0	0	0	508	503	0	462	39	8	
2	0	0	0	0	507	504	0	464	39	8	
3	0	0	0	0	509	504	0	481	39	8	
4	0	0	0	0	506	504	0	504	39	8	
5	0	0	0	0	505	504	0	524	38	8	
6	0	0	0	0	512	503	0	525	39	8	
7	0	0	0	0	510	503	0	538	38	8	
8	0	0	0	0	508	503	0	541	39	8	
9	0	0	0	0	503	504	0	537	39	8	
10	0	0	0	0	510	504	0	526	39	8	
11	0	0	0	0	503	504	0	514	39	8	
12	0	0	0	0	513	504	0	499	39	8	
13	0	0	0	0	505	504	0	488	38	8	
14	0	0	0	0	512	504	0	481	39	8	
15	0	0	0	0	508	504	0	475	38	8	
0	0	0	0	0	508	504	0	467	39	8	
1	0	0	0	0	506	505	0	462	39	8	
2	0	0	0	0	513	504	0	459	39	8	
3	0	0	0	0	506	505	0	460	39	8	
4	0	0	0	0	509	505	0	460	39	8	
5	0	0	0	0	501	505	0	463	38	8	
6	0	0	0	0	507	505	0	459	39	8	
7	0	0	0	0	509	505	0	455	39	8	
8	0	0	0	0	504	506	0	455	39	8	
9	0	0	0	0	510	505	0	453	39	8	
10	0	0	0	0	507	505	0	460	39	8	
11	0	0	0	0	513	505	0	460	39	8	
12	0	0	0	0	506	505	0	460	39	8	
13	0	0	0	0	513	505	0	460	38	8	
14	0	0	0	0	503	505	0	459	39	8	
15	0	0	0	0	510	505	0	456	39	8	
0	0	0	0	0	507	505	0	453	39	8	
1	0	0	0	0	512	505	0	453	39	8	
2	0	0	0	0	504	505	0	453	38	8	
3	0	0	0	0	508	505	0	456	39	8	
4	0	0	0	0	505	505	0	460	39	8	
5	0	0	0	0	510	505	0	464	38	8	
6	0	0	0	0	499	505	0	480	39	8	
7	0	0	0	0	512	505	0	499	39	8	
8	0	0	0	0	510	505	0	504	39	8	
9	0	0	0	0	502	505	0	527	39	8	
10	0	0	0	0	509	505	0	531	39	8	
11	0	0	0	0	506	505	0	540	39	8	
12	0	0	0	0	507	505	0	545	39	8	
13	0	0	0	0	508	505	0	542	38	8	
14	0	0	0	0	510	505	0	551	39	8	
15	0	0	0	0	508	506	0	543	39	8	
0	0	0	0	0	505	505	0	544	38	8	
1	0	0	0	0	509	505	0	550	39	8	
2	0	0	0	0	512	505	0	545	38	8	
3	0	0	0	0	505	505	0	537	39	8	
4	0	0	0	0	503	505	0	524	38	8	
5	0	0	0	0	508	505	0	506	38	8	
6	0	0	0	0	509	505	0	496	39	8	
7	0	0	0	0	508	505	0	486	39	8	
8	0	0	0	0	503	505	0	478	38	8	
9	0	0	0	0	512	505	0	468	39	8	
10	0	0	0	0	509	505	0	476	38	8	
11	0	0	0	0	505	505	0	463	38	8	
12	0	0	0	0	506	505	0	464	39	8	
13	0	0	0	0	507	505	0	465	38	8	
14	0	0	0	0	507	505	0	464	38	8	
15	0	0	0	0	505	505	0	461	39	8	
0	0	0	0	0	511	505	0	461	38	8	
1	0	0	0	0	507	505	0	462	39	8	
2	0	0	0	0	507	505	0	466	38	8	
3	0	0	0	0	512	505	0	466	39	8	
4	0	0	0	0	499	505	0	467	39	8	
5	0	0	0	0	507	506	0	469	38	8	
6	0	0	0	0	512	505	0	466	39	8	
7	0	0	0	0	515	506	0	465	39	8	
8	0	0	0	0	511	505	0	457	38	8	
9	0	0	0	0	498	505	0	466	39	8	
10	0	0	0	0	511	505	0	458	39	8	
11	0	0	0	0	508	505	0	460	39	8	
12	0	0	0	0	507	505	0	463	39	8	
13	0	0	0	0	506	505	0	463	38	8	
14	0	0	0	0	512	505	0	460	39	8	
15	0	0	0	0	505	505	0	471	39	8	
0	0	0	0	0	501	504	0	490	39	8	
1	0	0	0	0	503	504	0	499	39	8	
2	0	0	0	0	505	504	0	520	39	8	
3	0	0	0	0	509	504	0	534	39	8	
4	0	0	0	0	508	504	0	542	39	8	
5	0	0	0	0	506	504	0	552	38	8	
6	0	0	0	0	503	503	0	548	39	8	
7	0	0	0	0	509	504	0	554	39	8	
8	0	0	0	0	511	504	0	551	39	8	
9	0	0	0	0	511	504	0	547	39	8	
10	0	0	0	0	510	504	0	559	39	8	
11	0	0	0	0	514	504	0	548	38	8	
12	0	0	0	0	508	503	0	558	39	8	
13	0	0	0	0	503	504	0	544	38	8	
14	0	0	0	0	510	504	0	541	39	8	
15	0	0	0	0	500	504	0	529	39	8	
0	0	0	0	0	504	504	0	521	39	8	
1	0	0	0	0	499	505	0	506	39	8	
2	0	0	0	0	504	505	0	494	39	8	
3	0	0	0	0	509	505	0	483	38	8	
4	0	0	0	0	512	505	0	476	39	8	
5	0	0	0	0	505	505	0	470	38	8	
6	0	0	0	0	517	504	0	465	39	8	
7	0	0	0	0	505	504	0	460	39	8	
8	0	0	0	0	506	504	0	454	39	8	
9	0	0	0	0	503	504	0	455	39	8	
10	0	0	0	0	509	504	0	455	39	8	
11	0	0	0	0	507	505	0	467	39	8	
12	0	0	0	0	515	504	0	458	39	8	
13	0	0	0	0	510	504	0	475	38	8	
14	0	0	0	0	512	504	0	458	39	8	
15	0	0	0	0	507	504	0	457	38	8	
0	0	0	0	0	509	503	0	454	39	8	
1	0	0	0	0	498	504	0	453	39	8	
2	0	0	0	0	507	504	0	455	39	8	
3	0	0	0	0	506	504	0	458	39	8	
4	0	0	0	0	511	504	0	461	39	8	
5	0	0	0	0	508	504	0	463	38	8	
6	0	0	0	0	510	504	0	461	39	8	
7	0	0	0	0	502	505	0	458	38	8	
8	0	0	0	0	511	504	0	453	38	8	
9	0	0	0	0	504	504	0	455	39	8	
10	0	0	0	0	501	503	0	457	38	8	
11	0	0	0	0	512	503	0	459	39	8	
12	0	0	0	0	513	503	0	460	38	8	
13	0	0	0	0	501	503	0	462	38	8	
14	0	0	0	0	507	504	0	463	38	8	
15	0	0	0	0	510	503	0	459	38	8	
0	0	0	0	0	505	503	0	455	39	8	
1	0	0	0	0	506	503	0	455	39	8	
2	0	0	0	0	501	504	0	458	39	8	
3	0	0	0	0	508	504	0	458	38	8	
4	0	0	0	0	506	504	0	460	39	8	
5	0	0	0	0	503	504	0	457	38	8	
6	0	0	0	0	509	504	0	458	39	8	
7	0	0	0	0	510	503	0	451	39	8	
8	0	0	0	0	508	504	0	449	39	8	
9	0	0	0	0	503	503	0	446	39	8	
10	0	0	0	0	511	503	0	448	39	8	
11	0	0	0	0	510	504	0	449	39	8	
12	0	0	0	0	501	504	0	450	39	8	
13	0	0	0	0	513	504	0	453	38	8	
14	0	0	0	0	506	504	0	453	39	8	
15	0	0	0	0	508	504	0	450	39	8	
0	0	0	0	0	508	504	0	448	39	8	
1	0	0	0	0	510	503	0	448	39	8	
2	0	0	0	0	507	504	0	455	39	8	
3	0	0	0	0	505	503	0	480	38	8	
4	0	0	0	0	509	503	0	498	39	8	
5	0	0	0	0	507	503	0	513	38	8	
6	0	0	0	0	509	503	0	523	39	8	
7	0	0	0	0	506	503	0	532	39	8	
8	0	0	0	0	508	504	0	530	39	8	
9	0	0	0	0	507	504	0	530	39	8	
10	0	0	0	0	508	504	0	528	39	8	
11	0	0	0	0	507	504	0	536	39	8	
12	0	0	0	0	504	504	0	530	39	8	
13	0	0	0	0	512	504	0	537	38	8	
14	0	0	0	0	511	504	0	534	39	8	
15	0	0	0	0	506	504	0	531	39	8	
0	0	0	0	0	506	504	0	534	39	8	
1	0	0	0	0	503	504	0	524	39	8	
2	0	0	0	0	504	504	0	533	39	8	
3	0	0	0	0	504	504	0	532	39	8	
4	0	0	0	0	509	504	0	543	39	8	
5	0	0	0	0	507	504	0	536	38	8	
6	0	0	0	0	506	504	0	527	39	8	
7	0	0	0	0	500	504	0	531	39	8	
8	0	0	0	0	512	504	0	526	39	8	
9	0	0	0	0	509	503	0	522	39	8	
10	0	0	0	0	513	503	0	532	39	8	
11	0	0	0	0	511	504	0	526	38	8	
12	0	0	0	0	505	504	0	520	39	8	
13	0	0	0	0	508	504	0	523	38	8	
14	0	0	0	0	504	504	0	524	38	8	
15	0	0	0	0	508	504	0	513	38	8	
0	0	0	0	0	510	504	0	504	38	8	
1	0	0	0	0	503	504	0	492	39	8	
2	0	0	0	0	510	503	0	479	38	8	
3	0	0	0	0	512	504	0	473	38	8	
4	0	0	0	0	513	504	0	463	38	8	
5	0	0	0	0	508	504	0	457	38	8	
6	0	0	0	0	501	504	0	452	38	8	
7	0	0	0	0	504	504	0	447	39	8	
8	0	0	0	0	511	504	0	443	39	8	
9	0	0	0	0	507	504	0	443	39	8	
10	0	0	0	0	505	504	0	445	39	8	
11	0	0	0	0	501	505	0	448	39	8	
12	0	0	0	0	506	505	0	449	38	8	
13	0	0	0	0	502	506	0	451	38	8	
14	0	0	0	0	510	505	0	455	38	8	
15	0	0	0	0	515	505	0	452	39	8	
0	0	0	0	0	513	505	0	452	38	8	
1	0	0	0	0	512	505	0	448	39	8	
2	0	0	0	0	508	505	0	450	39	8	
3	0	0	0	0	499	505	0	452	39	8	
4	0	0	0	0	505	505	0	455	39	8	
5	0	0	0	0	510	504	0	456	38	8	
6	0	0	0	0	503	505	0	456	39	8	
7	0	0	0	0	505	505	0	454	39	8	
8	0	0	0	0	505	504	0	449	39	8	
9	0	0	0	0	505	504	0	451	39	8	
10	0	0	0	0	504	504	0	454	38	8	
11	0	0	0	0	511	504	0	456	39	8	
12	0	0	0	0	512	504	0	471	39	8	
13	0	0	0	0	509	504	0	498	38	8	
14	0	0	0	0	507	504	0	505	39	8	
15	0	0	0	0	506	504	0	533	39	8	
0	0	0	0	0	511	504	0	526	38	8	
1	0	0	0	0	506	504	0	529	39	8	
2	0	0	0	0	509	504	0	540	39	8	
3	0	0	0	0	509	504	0	535	39	8	
4	0	0	0	0	509	503	0	545	39	8	
5	0	0	0	0	506	503	0	545	38	8	
6	0	0	0	0	515	504	0	545	39	8	
7	0	0	0	0	501	504	0	548	39	8	
8	0	0	0	0	506	504	0	538	39	8	
9	0	0	0	0	505	504	0	529	39	8	
10	0	0	0	0	503	504	0	527	39	8	
11	0	0	0	0	514	504	0	501	39	8	
12	0	0	0	0	507	504	0	491	39	8	
13	0	0	0	0	504	505	0	483	38	8	
14	0	0	0	0	505	505	0	476	39	8	
15	0	0	0	0	508	504	0	470	39	8	
0	0	0	0	0	504	504	0	468	39	8	
1	0	0	0	0	509	504	0	467	39	8	
2	0	0	0	0	508	505	0	468	39	8	
3	0	0	0	0	502	504	0	469	39	8	
4	0	0	0	0	506	504	0	469	39	8	
5	0	0	0	0	508	505	0	469	38	8	
6	0	0	0	0	507	505	0	469	39	8	
7	0	0	0	0	508	504	0	468	39	8	
8	0	0	0	0	510	504	0	464	39	8	
9	0	0	0	0	510	504	0	467	39	8	
10	0	0	0	0	508	504	0	468	39	8	
11	0	0	0	0	507	505	0	473	39	8	
12	0	0	0	0	503	504	0	473	39	8	
13	0	0	0	0	509	504	0	479	38	8	
14	0	0	0	0	513	504	0	473	38	8	
15	0	0	0	0	509	504	0	477	39	8	
0	0	0	0	0	505	505	0	467	39	8	
1	0	0	0	0	508	505	0	468	39	8	
2	0	0	0	0	509	504	0	469	39	8	
3	0	0	0	0	508	505	0	472	39	8	
4	0	0	0	0	506	505	0	474	39	8	
5	0	0	0	0	508	505	0	485	38	8	
6	0	0	0	0	507	505	0	508	39	8	
7	0	0	0	0	507	505	0	516	39	8	
8	0	0	0	0	507	504	0	531	39	8	
9	0	0	0	0	509	504	0	545	39	8	
10	0	0	0	0	508	503	0	548	39	8	
11	0	0	0	0	508	503	0	562	38	8	
12	0	0	0	0	503	503	0	558	38	8	
13	0	0	0	0	512	503	0	563	38	8	
14	0	0	0	0	507	504	0	566	38	8	
15	0	0	0	0	508	504	0	560	39	8	
0	0	0	0	0	501	504	0	570	39	8	
1	0	0	0	0	499	504	0	562	39	8	
2	0	0	0	0	511	504	0	557	39	8	
3	0	0	0	0	510	504	0	542	39	8	
4	0	0	0	0	512	503	0	531	39	8	
5	0	0	0	0	509	503	0	516	38	8	
6	0	0	0	0	505	503	0	507	38	8	
7	0	0	0	0	508	503	0	496	39	8	
8	0	0	0	0	505	504	0	488	38	8	
9	0	0	0	0	507	504	0	486	39	8	
10	0	0	0	0	508	504	0	485	39	8	
11	0	0	0	0	507	504	0	484	38	8	
12	0	0	0	0	513	503	0	485	39	8	
13	0	0	0	0	507	503	0	483	38	8	
14	0	0	0	0	508	504	0	482	39	8	
15	0	0	0	0	498	504	0	479	39	8	
0	0	0	0	0	507	504	0	474	39	8	
1	0	0	0	0	513	504	0	476	39	8	
2	0	0	0	0	508	504	0	476	39	8	
3	0	0	0	0	509	504	0	492	39	8	
4	0	0	0	0	502	504	0	485	39	8	
5	0	0	0	0	506	504	0	487	38	8	
6	0	0	0	0	510	504	0	484	39	8	
7	0	0	0	0	511	504	0	481	39	8	
8	0	0	0	0	507	504	0	477	38	8	
9	0	0	0	0	507	504	0	482	39	8	
10	0	0	0	0	508	504	0	487	39	8	
11	0	0	0	0	498	504	0	487	39	8	
12	0	0	0	0	504	505	0	500	39	8	
13	0	0	0	0	512	504	0	493	38	8	
14	0	0	0	0	514	504	0	498	39	8	
15	0	0	0	0	509	504	0	520	39	8	
0	0	0	0	0	507	504	0	535	39	8	
1	0	0	0	0	511	504	0	546	39	8	
2	0	0	0	0	509	504	0	566	39	8	
3	0	0	0	0	501	504	0	566	39	8	
4	0	0	0	0	508	504	0	579	39	8	
5	0	0	0	0	509	504	0	578	38	8	
6	0	0	0	0	514	504	0	577	39	8	
7	0	0	0	0	505	504	0	580	39	8	
8	0	0	0	0	509	504	0	571	38	8	
9	0	0	0	0	508	504	0	578	39	8	
10	0	0	0	0	504	504	0	571	39	8	
11	0	0	0	0	507	504	0	565	39	8	
12	0	0	0	0	502	504	0	552	39	8	
13	0	0	0	0	504	504	0	542	38	8	
14	0	0	0	0	505	504	0	523	39	8	
15	0	0	0	0	510	504	0	544	39	8	
0	0	0	0	0	510	504	0	538	38	8	
1	0	0	0	0	504	504	0	540	39	8	
2	0	0	0	0	509	504	0	539	39	8	
3	0	0	0	0	506	505	0	528	39	8	
4	0	0	0	0	507	504	0	517	39	8	
5	0	0	0	0	515	504	0	508	38	8	
6	0	0	0	0	510	504	0	501	39	8	
7	0	0	0	0	503	504	0	495	39	8	
8	0	0	0	0	507	504	0	487	39	8	
9	0	0	0	0	509	504	0	484	39	8	
10	0	0	0	0	506	504	0	483	39	8	
11	0	0	0	0	509	504	0	483	39	8	
12	0	0	0	0	507	504	0	485	39	8	
13	0	0	0	0	512	504	0	484	38	8	
14	0	0	0	0	505	504	0	481	39	8	
15	0	0	0	0	506	505	0	476	39	8	
0	0	0	0	0	509	505	0	474	39	8	
1	0	0	0	0	504	505	0	473	39	8	
2	0	0	0	0	508	505	0	474	39	8	
3	0	0	0	0	505	505	0	477	39	8	
4	0	0	0	0	506	505	0	481	39	8	
5	0	0	0	0	504	504	0	481	38	8	
6	0	0	0	0	508	504	0	482	39	8	
7	0	0	0	0	513	504	0	476	39	8	
8	0	0	0	0	508	504	0	474	39	8	
9	0	0	0	0	505	504	0	476	39	8	
10	0	0	0	0	501	504	0	476	39	8	
11	0	0	0	0	511	504	0	479	39	8	
12	0	0	0	0	507	504	0	478	39	8	
13	0	0	0	0	507	504	0	480	38	8	
14	0	0	0	0	511	504	0	491	39	8	
15	0	0	0	0	508	504	0	511	39	8	
0	0	0	0	0	513	503	0	515	39	8	
1	0	0	0	0	505	504	0	535	39	8	
2	0	0	0	0	502	504	0	539	39	8	
3	0	0	0	0	512	504	0	544	39	8	
4	0	0	0	0	510	504	0	557	39	8	
5	0	0	0	0	505	504	0	556	38	8	
6	0	0	0	0	514	504	0	564	38	8	
7	0	0	0	0	508	504	0	555	39	8	
8	0	0	0	0	504	504	0	549	38	8	
9	0	0	0	0	506	504	0	556	39	8	
10	0	0	0	0	518	503	0	551	38	8	
11	0	0	0	0	506	504	0	544	39	8	
12	0	0	0	0	501	504	0	528	39	8	
13	0	0	0	0	509	505	0	512	38	8	
14	0	0	0	0	508	505	0	500	39	8	
15	0	0	0	0	508	504	0	490	38	8	
0	0	0	0	0	509	505	0	481	38	8	
1	0	0	0	0	506	504	0	477	39	8	
2	0	0	0	0	510	504	0	473	39	8	
3	0	0	0	0	508	504	0	473	39	8	
4	0	0	0	0	507	504	0	475	39	8	
5	0	0	0	0	510	504	0	475	38	8	
6	0	0	0	0	508	504	0	472	39	8	
7	0	0	0	0	509	504	0	468	39	8	
8	0	0	0	0	503	504	0	464	39	8	
9	0	0	0	0	508	504	0	467	39	8	
10	0	0	0	0	507	504	0	471	38	8	
11	0	0	0	0	502	504	0	470	39	8	
12	0	0	0	0	508	505	0	475	39	8	
13	0	0	0	0	510	504	0	472	38	8	
14	0	0	0	0	508	504	0	473	39	8	
15	0	0	0	0	508	504	0	470	39	8	
0	0	0	0	0	507	504	0	468	39	8	
1	0	0	0	0	504	504	0	469	39	8	
2	0	0	0	0	512	504	0	473	39	8	
3	0	0	0	0	510	503	0	476	39	8	
4	0	0	0	0	510	504	0	479	39	8	
5	0	0	0	0	508	504	0	482	38	8	
6	0	0	0	0	504	504	0	480	39	8	
7	0	0	0	0	507	503	0	486	39	8	
8	0	0	0	0	509	504	0	509	39	8	
9	0	0	0	0	510	504	0	520	39	8	
10	0	0	0	0	506	504	0	538	39	8	
11	0	0	0	0	505	505	0	553	39	8	
12	0	0	0	0	509	505	0	555	39	8	
13	0	0	0	0	511	505	0	569	38	8	
14	0	0	0	0	513	505	0	567	39	8	
15	0	0	0	0	504	505	0	567	39	8	
0	0	0	0	0	507	505	0	566	39	8	
1	0	0	0	0	503	505	0	558	39	8	
2	0	0	0	0	506	505	0	572	39	8	
3	0	0	0	0	507	505	0	561	39	8	
4	0	0	0	0	511	505	0	554	39	8	
5	0	0	0	0	509	505	0	551	38	8	
6	0	0	0	0	502	505	0	560	39	8	
7	0	0	0	0	504	505	0	551	39	8	
8	0	0	0	0	509	505	0	545	39	8	
9	0	0	0	0	513	504	0	530	39	8	
10	0	0	0	0	503	504	0	514	39	8	
11	0	0	0	0	510	504	0	505	39	8	
12	0	0	0	0	511	504	0	494	39	8	
13	0	0	0	0	504	505	0	487	38	8	
14	0	0	0	0	506	505	0	482	39	8	
15	0	0	0	0	507	505	0	477	38	8	
0	0	0	0	0	507	505	0	468	38	8	
1	0	0	0	0	509	505	0	467	39	8	
2	0	0	0	0	499	505	0	467	38	8	
3	0	0	0	0	510	505	0	469	38	8	
4	0	0	0	0	511	505	0	470	38	8	
5	0	0	0	0	505	505	0	471	38	8	
6	0	0	0	0	507	505	0	471	38	8	
7	0	0	0	0	511	505	0	465	39	8	
8	0	0	0	0	510	505	0	465	38	8	
9	0	0	0	0	502	505	0	464	39	8	
10	0	0	0	0	512	505	0	476	38	8	
11	0	0	0	0	509	505	0	468	38	8	
12	0	0	0	0	502	505	0	469	39	8	
13	0	0	0	0	514	504	0	468	38	8	
14	0	0	0	0	512	505	0	469	38	8	
15	0	0	0	0	508	504	0	466	39	8	
0	0	0	0	0	502	505	0	466	39	8	
1	0	0	0	0	512	504	0	465	39	8	
2	0	0	0	0	513	504	0	464	39	8	
3	0	0	0	0	505	503	0	473	39	8	
4	0	0	0	0	508	503	0	471	39	8	
5	0	0	0	0	509	503	0	475	38	8	
6	0	0	0	0	507	503	0	475	39	8	
7	0	0	0	0	504	503	0	474	39	8	
8	0	0	0	0	510	503	0	472	39	8	
9	0	0	0	0	505	503	0	472	39	8	
10	0	0	0	0	507	503	0	476	39	8	
11	0	0	0	0	499	503	0	476	39	8	
12	0	0	0	0	507	504	0	477	39	8	
13	0	0	0	0	509	504	0	478	38	8	
14	0	0	0	0	508	504	0	477	39	8	
15	0	0	0	0	507	504	0	474	39	8	
0	0	0	0	0	504	504	0	471	39	8	
1	0	0	0	0	508	503	0	470	39	8	
2	0	0	0	0	505	503	0	473	39	8	
3	0	0	0	0	505	503	0	478	39	8	
4	0	0	0	0	510	503	0	480	38	8	
5	0	0	0	0	505	504	0	482	38	8	
6	0	0	0	0	509	504	0	481	38	8	
7	0	0	0	0	503	504	0	479	39	8	
8	0	0	0	0	504	503	0	476	39	8	
9	0	0	0	0	503	503	0	479	39	8	
10	0	0	0	0	513	503	0	480	39	8	
11	0	0	0	0	508	502	0	483	38	8	
12	0	0	0	0	511	503	0	487	39	8	
13	0	0	0	0	508	503	0	488	38	8	
14	0	0	0	0	508	503	0	490	39	8	
15	0	0	0	0	507	504	0	486	39	8	
0	0	0	0	0	515	504	0	509	39	8	
1	0	0	0	0	506	504	0	529	39	8	
2	0	0	0	0	502	504	0	557	39	8	
3	0	0	0	0	509	504	0	562	39	8	
4	0	0	0	0	504	504	0	566	39	8	
5	0	0	0	0	507	504	0	572	38	8	
6	0	0	0	0	513	504	0	573	39	8	
7	0	0	0	0	506	503	0	563	39	8	
8	0	0	0	0	510	504	0	569	39	8	
9	0	0	0	0	510	503	0	560	39	8	
10	0	0	0	0	500	503	0	565	39	8	
11	0	0	0	0	510	503	0	572	39	8	
12	0	0	0	0	509	504	0	569	39	8	
13	0	0	0	0	505	504	0	577	38	8	
14	0	0	0	0	504	504	0	567	38	8	
15	0	0	0	0	508	504	0	566	38	8	
0	0	0	0	0	508	504	0	566	38	8	
1	0	0	0	0	510	504	0	561	39	8	
2	0	0	0	0	511	504	0	571	39	8	
3	0	0	0	0	499	504	0	570	39	8	
4	0	0	0	0	510	504	0	572	39	8	
5	0	0	0	0	517	504	0	575	38	8	
6	0	0	0	0	505	503	0	566	39	8	
7	0	0	0	0	507	504	0	574	39	8	
8	0	0	0	0	511	504	0	563	39	8	
9	0	0	0	0	509	504	0	564	39	8	
10	0	0	0	0	499	504	0	568	39	8	
11	0	0	0	0	505	504	0	556	39	8	
12	0	0	0	0	511	503	0	541	39	8	
13	0	0	0	0	507	503	0	549	38	8	
14	0	0	0	0	506	503	0	548	39	8	
15	0	0	0	0	509	503	0	550	39	8	
0	0	0	0	0	510	503	0	558	39	8	
1	0	0	0	0	508	504	0	554	39	8	
2	0	0	0	0	507	503	0	549	39	8	
3	0	0	0	0	506	503	0	536	39	8	
4	0	0	0	0	510	503	0	524	39	8	
5	0	0	0	0	501	503	0	511	38	8	
6	0	0	0	0	510	503	0	507	39	8	
7	0	0	0	0	509	503	0	497	39	8	
8	0	0	0	0	513	503	0	504	39	8	
9	0	0	0	0	496	503	0	490	39	8	
10	0	0	0	0	504	503	0	489	39	8	
11	0	0	0	0	511	503	0	488	39	8	
12	0	0	0	0	509	503	0	487	39	8	
13	0	0	0	0	506	504	0	486	38	8	
14	0	0	0	0	510	504	0	483	38	8	
15	0	0	0	0	509	504	0	480	39	8	
0	0	0	0	0	509	504	0	476	39	8	
1	0	0	0	0	508	505	0	475	39	8	
2	0	0	0	0	511	505	0	476	39	8	
3	0	0	0	0	503	505	0	479	39	8	
4	0	0	0	0	503	505	0	481	39	8	
5	0	0	0	0	509	505	0	484	38	8	
6	0	0	0	0	510	505	0	486	39	8	
7	0	0	0	0	504	505	0	486	38	8	
8	0	0	0	0	505	505	0	482	38	8	
9	0	0	0	0	506	505	0	499	39	8	
10	0	0	0	0	505	505	0	485	38	8	
11	0	0	0	0	508	505	0	487	39	8	
12	0	0	0	0	512	505	0	487	39	8	
13	0	0	0	0	506	505	0	488	38	8	
14	0	0	0	0	499	505	0	494	39	8	
15	0	0	0	0	515	505	0	516	39	8	
0	0	0	0	0	515	505	0	525	39	8	
1	0	0	0	0	509	505	0	542	39	8	
2	0	0	0	0	514	505	0	552	38	8	
3	0	0	0	0	503	505	0	555	38	8	
4	0	0	0	0	507	505	0	570	38	8	
5	0	0	0	0	510	505	0	568	38	8	
6	0	0	0	0	513	504	0	584	39	8	
7	0	0	0	0	511	505	0	571	38	8	
8	0	0	0	0	507	504	0	562	39	8	
9	0	0	0	0	507	505	0	568	39	8	
10	0	0	0	0	504	505	0	563	39	8	
11	0	0	0	0	508	504	0	557	39	8	
12	0	0	0	0	500	504	0	543	38	8	
13	0	0	0	0	510	504	0	530	38	8	
14	0	0	0	0	509	504	0	516	38	8	
15	0	0	0	0	502	504	0	508	38	8	
0	0	0	0	0	511	504	0	497	38	8	
1	0	0	0	0	508	505	0	494	39	8	
2	0	0	0	0	511	504	0	487	39	8	
3	0	0	0	0	503	504	0	486	39	8	
4	0	0	0	0	508	504	0	484	39	8	
5	0	0	0	0	507	504	0	482	38	8	
6	0	0	0	0	512	504	0	480	39	8	
7	0	0	0	0	504	504	0	476	39	8	
8	0	0	0	0	507	504	0	472	39	8	
9	0	0	0	0	506	504	0	472	39	8	
10	0	0	0	0	504	504	0	476	39	8	
11	0	0	0	0	508	504	0	476	39	8	
12	0	0	0	0	515	504	0	479	39	8	
13	0	0	0	0	505	504	0	482	38	8	
14	0	0	0	0	510	504	0	484	39	8	
15	0	0	0	0	507	504	0	482	39	8	
0	0	0	0	0	504	504	0	480	39	8	
1	0	0	0	0	511	504	0	480	39	8	
2	0	0	0	0	515	504	0	483	39	8	
3	0	0	0	0	505	504	0	486	39	8	
4	0	0	0	0	500	504	0	484	39	8	
5	0	0	0	0	506	504	0	486	38	8	
6	0	0	0	0	505	504	0	485	39	8	
7	0	0	0	0	503	504	0	485	39	8	
8	0	0	0	0	504	504	0	507	38	8	
9	0	0	0	0	511	503	0	525	39	8	
10	0	0	0	0	514	503	0	539	39	8	
11	0	0	0	0	506	503	0	556	38	8	
12	0	0	0	0	505	504	0	556	39	8	
13	0	0	0	0	509	504	0	566	38	8	
14	0	0	0	0	510	504	0	568	39	8	
15	0	0	0	0	507	504	0	566	38	8	
0	0	0	0	0	505	504	0	571	39	8	
1	0	0	0	0	507	504	0	562	39	8	
2	0	0	0	0	505	503	0	570	39	8	
3	0	0	0	0	508	504	0	567	39	8	
4	0	0	0	0	508	504	0	562	39	8	
5	0	0	0	0	508	503	0	559	38	8	
6	0	0	0	0	510	503	0	567	38	8	
7	0	0	0	0	512	503	0	563	39	8	
8	0	0	0	0	509	503	0	552	39	8	
9	0	0	0	0	513	504	0	537	39	8	
10	0	0	0	0	511	504	0	521	39	8	
11	0	0	0	0	513	504	0	508	38	8	
12	0	0	0	0	499	505	0	498	39	8	
13	0	0	0	0	503	505	0	491	38	8	
14	0	0	0	0	507	505	0	490	39	8	
15	0	0	0	0	509	505	0	486	39	8	
0	0	0	0	0	507	505	0	483	39	8	
1	0	0	0	0	507	505	0	477	39	8	
2	0	0	0	0	507	505	0	475	39	8	
3	0	0	0	0	510	505	0	476	39	8	
4	0	0	0	0	507	505	0	476	39	8	
5	0	0	0	0	512	505	0	478	38	8	
6	0	0	0	0	508	505	0	477	39	8	
7	0	0	0	0	508	504	0	474	38	8	
8	0	0	0	0	504	505	0	472	39	8	
9	0	0	0	0	504	504	0	474	39	8	
10	0	0	0	0	510	504	0	474	39	8	
11	0	0	0	0	510	504	0	479	39	8	
12	0	0	0	0	509	504	0	477	39	8	
13	0	0	0	0	510	505	0	477	38	8	
14	0	0	0	0	514	505	0	476	39	8	
15	0	0	0	0	504	504	0	473	38	8	
0	0	0	0	0	507	504	0	468	39	8	
1	0	0	0	0	511	504	0	468	39	8	
2	0	0	0	0	502	504	0	472	39	8	
3	0	0	0	0	504	504	0	472	39	8	
4	0	0	0	0	508	504	0	476	39	8	
5	0	0	0	0	506	504	0	476	38	8	
6	0	0	0	0	499	504	0	472	39	8	
7	0	0	0	0	505	504	0	483	38	8	
8	0	0	0	0	497	504	0	504	39	8	
9	0	0	0	0	509	504	0	512	39	8	
10	0	0	0	0	504	504	0	535	39	8	
11	0	0	0	0	516	504	0	545	39	8	
12	0	0	0	0	519	504	0	551	38	8	
13	0	0	0	0	510	504	0	561	38	8	
14	0	0	0	0	515	504	0	555	39	8	
15	0	0	0	0	510	505	0	561	39	8	
0	0	0	0	0	501	504	0	559	39	8	
1	0	0	0	0	502	505	0	558	39	8	
2	0	0	0	0	513	505	0	563	38	8	
3	0	0	0	0	509	505	0	562	39	8	
4	0	0	0	0	505	505	0	550	39	8	
5	0	0	0	0	508	505	0	554	38	8	
6	0	0	0	0	513	505	0	557	38	8	
7	0	0	0	0	512	505	0	550	39	8	
8	0	0	0	0	504	505	0	542	38	8	
9	0	0	0	0	500	505	0	528	39	8	
10	0	0	0	0	509	505	0	514	39	8	
11	0	0	0	0	506	505	0	505	39	8	
12	0	0	0	0	507	504	0	499	39	8	
13	0	0	0	0	511	505	0	492	38	8	
14	0	0	0	0	509	505	0	491	39	8	
15	0	0	0	0	507	505	0	483	39	8	
0	0	0	0	0	509	505	0	481	39	8	
1	0	0	0	0	508	505	0	478	39	8	
2	0	0	0	0	502	505	0	483	39	8	
3	0	0	0	0	500	505	0	479	38	8	
4	0	0	0	0	505	505	0	479	39	8	
5	0	0	0	0	512	505	0	479	38	8	
6	0	0	0	0	504	505	0	479	39	8	
7	0	0	0	0	512	505	0	476	39	8	
8	0	0	0	0	507	505	0	473	39	8	
9	0	0	0	0	508	505	0	475	39	8	
10	0	0	0	0	508	505	0	475	39	8	
11	0	0	0	0	508	505	0	480	39	8	
12	0	0	0	0	511	505	0	482	39	8	
13	0	0	0	0	503	505	0	486	38	8	
14	0	0	0	0	507	504	0	483	39	8	
15	0	0	0	0	511	505	0	483	39	8	
0	0	0	0	0	501	504	0	478	39	8	
1	0	0	0	0	512	505	0	482	39	8	
2	0	0	0	0	514	505	0	483	39	8	
3	0	0	0	0	512	504	0	489	39	8	
4	0	0	0	0	512	504	0	502	39	8	
5	0	0	0	0	507	504	0	543	38	8	
6	0	0	0	0	504	504	0	540	39	8	
7	0	0	0	0	506	504	0	561	39	8	
8	0	0	0	0	506	504	0	566	39	8	
9	0	0	0	0	508	504	0	570	39	8	
10	0	0	0	0	507	505	0	581	39	8	
11	0	0	0	0	509	504	0	577	39	8	
12	0	0	0	0	512	505	0	585	39	8	
13	0	0	0	0	504	504	0	586	38	8	
14	0	0	0	0	502	504	0	581	39	8	
15	0	0	0	0	501	504	0	584	39	8	
0	0	0	0	0	512	505	0	573	39	8	
1	0	0	0	0	507	505	0	562	39	8	
2	0	0	0	0	514	505	0	548	39	8	
3	0	0	0	0	499	505	0	532	39	8	
4	0	0	0	0	507	505	0	524	39	8	
5	0	0	0	0	498	505	0	515	38	8	
6	0	0	0	0	505	505	0	509	39	8	
7	0	0	0	0	516	505	0	506	39	8	
8	0	0	0	0	503	505	0	501	38	8	
9	0	0	0	0	512	505	0	500	39	8	
10	0	0	0	0	502	505	0	500	39	8	
11	0	0	0	0	508	505	0	501	39	8	
12	0	0	0	0	513	505	0	500	39	8	
13	0	0	0	0	511	505	0	500	38	8	
14	0	0	0	0	507	505	0	501	38	8	
15	0	0	0	0	505	505	0	496	38	8	
0	0	0	0	0	505	506	0	494	39	8	
1	0	0	0	0	499	505	0	492	39	8	
2	0	0	0	0	502	505	0	495	39	8	
3	0	0	0	0	511	505	0	496	39	8	
4	0	0	0	0	506	505	0	500	39	8	
5	0	0	0	0	512	505	0	501	38	8	
6	0	0	0	0	509	505	0	499	39	8	
7	0	0	0	0	510	505	0	499	39	8	
8	0	0	0	0	503	505	0	496	38	8	
9	0	0	0	0	513	504	0	499	39	8	
10	0	0	0	0	501	505	0	500	39	8	
11	0	0	0	0	515	504	0	504	39	8	
12	0	0	0	0	505	504	0	502	39	8	
13	0	0	0	0	512	505	0	513	38	8	
14	0	0	0	0	511	504	0	537	38	8	
15	0	0	0	0	507	505	0	546	38	8	
0	0	0	0	0	505	504	0	560	38	8	
1	0	0	0	0	511	505	0	572	39	8	
2	0	0	0	0	512	504	0	574	38	8	
3	0	0	0	0	499	504	0	588	38	8	
4	0	0	0	0	507	504	0	587	39	8	
5	0	0	0	0	508	504	0	590	38	8	
6	0	0	0	0	510	504	0	592	39	8	
7	0	0	0	0	508	504	0	582	39	8	
8	0	0	0	0	505	504	0	589	38	8	
9	0	0	0	0	509	504	0	582	39	8	
10	0	0	0	0	505	504	0	578	39	8	
11	0	0	0	0	508	504	0	563	39	8	
12	0	0	0	0	503	504	0	550	39	8	
13	0	0	0	0	504	504	0	537	38	8	
14	0	0	0	0	508	504	0	528	39	8	
15	0	0	0	0	511	503	0	518	39	8	
0	0	0	0	0	508	504	0	510	39	8	
1	0	0	0	0	506	504	0	508	39	8	
2	0	0	0	0	510	504	0	506	39	8	
3	0	0	0	0	507	504	0	507	38	8	
4	0	0	0	0	504	504	0	507	39	8	
5	0	0	0	0	510	504	0	508	38	8	
6	0	0	0	0	508	503	0	507	39	8	
7	0	0	0	0	510	503	0	505	39	8	
8	0	0	0	0	508	503	0	502	38	8	
9	0	0	0	0	509	504	0	503	39	8	
10	0	0	0	0	512	504	0	504	38	8	
11	0	0	0	0	512	504	0	506	39	8	
12	0	0	0	0	509	504	0	508	39	8	
13	0	0	0	0	511	504	0	509	38	8	
14	0	0	0	0	501	504	0	508	38	8	
15	0	0	0	0	501	504	0	504	39	8	
0	0	0	0	0	508	504	0	502	38	8	
1	0	0	0	0	508	504	0	500	39	8	
2	0	0	0	0	509	504	0	504	38	8	
3	0	0	0	0	504	504	0	503	38	8	
4	0	0	0	0	505	504	0	504	38	8	
5	0	0	0	0	514	504	0	504	38	8	
6	0	0	0	0	514	504	0	504	38	8	
7	0	0	0	0	505	504	0	501	39	8	
8	0	0	0	0	510	504	0	500	38	8	
9	0	0	0	0	502	504	0	500	39	8	
10	0	0	0	0	512	505	0	502	39	8	
11	0	0	0	0	504	505	0	504	39	8	
12	0	0	0	0	504	505	0	506	39	8	
13	0	0	0	0	511	504	0	504	38	8	
14	0	0	0	0	509	504	0	503	39	8	
15	0	0	0	0	504	504	0	502	39	8	
0	0	0	0	0	497	505	0	496	38	8	
1	0	0	0	0	510	504	0	495	39	8	
2	0	0	0	0	505	505	0	497	39	8	
3	0	0	0	0	511	505	0	500	39	8	
4	0	0	0	0	507	505	0	500	39	8	
5	0	0	0	0	513	505	0	504	38	8	
6	0	0	0	0	512	505	0	505	39	8	
7	0	0	0	0	509	505	0	503	39	8	
8	0	0	0	0	512	505	0	502	39	8	
9	0	0	0	0	509	505	0	502	39	8	
10	0	0	0	0	508	505	0	507	39	8	
11	0	0	0	0	506	505	0	506	39	8	
12	0	0	0	0	500	505	0	531	39	8	
13	0	0	0	0	505	505	0	545	38	8	
14	0	0	0	0	507	505	0	552	39	8	
15	0	0	0	0	510	505	0	571	39	8	
0	0	0	0	0	507	505	0	572	39	8	
1	0	0	0	0	509	505	0	578	39	8	
2	0	0	0	0	506	505	0	584	39	8	
3	0	0	0	0	504	505	0	579	38	8	
4	0	0	0	0	512	504	0	590	39	8	
5	0	0	0	0	509	504	0	584	38	8	
6	0	0	0	0	510	504	0	585	39	8	
7	0	0	0	0	508	505	0	580	39	8	
8	0	0	0	0	504	504	0	569	39	8	
9	0	0	0	0	513	504	0	576	39	8	
10	0	0	0	0	503	504	0	574	39	8	
11	0	0	0	0	502	504	0	577	39	8	
12	0	0	0	0	508	504	0	578	39	8	
13	0	0	0	0	509	504	0	572	38	8	
14	0	0	0	0	509	504	0	578	39	8	
15	0	0	0	0	509	504	0	568	38	8	
0	0	0	0	0	509	504	0	567	39	8	
1	0	0	0	0	508	504	0	574	39	8	
2	0	0	0	0	510	504	0	568	39	8	
3	0	0	0	0	511	504	0	559	38	8	
4	0	0	0	0	505	505	0	541	39	8	
5	0	0	0	0	508	505	0	524	38	8	
6	0	0	0	0	508	505	0	508	38	8	
7	0	0	0	0	511	505	0	497	39	8	
8	0	0	0	0	503	505	0	489	38	8	
9	0	0	0	0	507	504	0	487	39	8	
10	0	0	0	0	508	504	0	508	38	8	
11	0	0	0	0	502	505	0	525	39	8	
12	0	0	0	0	510	504	0	536	38	8	
13	0	0	0	0	507	504	0	539	38	8	
14	0	0	0	0	515	504	0	554	39	8	
15	0	0	0	0	503	504	0	558	39	8	
0	0	0	0	0	508	504	0	554	39	8	
1	0	0	0	0	507	504	0	544	39	8	
2	0	0	0	0	513	504	0	531	39	8	
3	0	0	0	0	503	504	0	518	39	8	
4	0	0	0	0	507	504	0	505	39	8	
5	0	0	0	0	516	504	0	498	38	8	
6	0	0	0	0	504	504	0	494	39	8	
7	0	0	0	0	505	504	0	491	39	8	
8	0	0	0	0	499	504	0	484	39	8	
9	0	0	0	0	510	504	0	485	39	8	
10	0	0	0	0	502	504	0	480	39	8	
11	0	0	0	0	507	504	0	481	39	8	
12	0	0	0	0	508	504	0	483	39	8	
13	0	0	0	0	508	504	0	483	38	8	
14	0	0	0	0	501	504	0	479	39	8	
15	0	0	0	0	509	505	0	474	39	8	
0	0	0	0	0	508	505	0	470	39	8	
1	0	0	0	0	506	505	0	472	39	8	
2	0	0	0	0	508	504	0	477	39	8	
3	0	0	0	0	509	504	0	478	38	8	
4	0	0	0	0	506	504	0	486	39	8	
5	0	0	0	0	509	504	0	483	38	8	
6	0	0	0	0	511	505	0	483	39	8	
7	0	0	0	0	505	505	0	478	39	8	
8	0	0	0	0	510	505	0	476	38	8	
9	0	0	0	0	505	506	0	476	39	8	
10	0	0	0	0	502	505	0	478	39	8	
11	0	0	0	0	509	506	0	480	39	8	
12	0	0	0	0	517	505	0	482	39	8	
13	0	0	0	0	509	505	0	482	38	8	
14	0	0	0	0	506	505	0	480	39	8	
15	0	0	0	0	506	505	0	487	38	8	
0	0	0	0	0	502	505	0	509	38	8	
1	0	0	0	0	506	505	0	521	39	8	
2	0	0	0	0	505	505	0	536	39	8	
3	0	0	0	0	508	505	0	549	38	8	
4	0	0	0	0	514	505	0	554	39	8	
5	0	0	0	0	506	504	0	569	38	8	
6	0	0	0	0	508	504	0	566	38	8	
7	0	0	0	0	508	504	0	568	39	8	
8	0	0	0	0	514	504	0	566	39	8	
9	0	0	0	0	510	504	0	560	39	8	
10	0	0	0	0	505	503	0	568	39	8	
11	0	0	0	0	502	504	0	563	39	8	
12	0	0	0	0	511	504	0	559	39	8	
13	0	0	0	0	501	504	0	556	38	8	
14	0	0	0	0	508	504	0	564	39	8	
15	0	0	0	0	511	504	0	553	39	8	
0	0	0	0	0	503	505	0	547	39	8	
1	0	0	0	0	508	505	0	532	39	8	
2	0	0	0	0	508	505	0	521	38	8	
3	0	0	0	0	500	505	0	512	38	8	
4	0	0	0	0	508	504	0	506	39	8	
5	0	0	0	0	504	504	0	500	38	8	
6	0	0	0	0	516	504	0	497	38	8	
7	0	0	0	0	507	504	0	493	39	8	
8	0	0	0	0	507	504	0	488	38	8	
9	0	0	0	0	511	503	0	490	39	8	
10	0	0	0	0	511	504	0	488	39	8	
11	0	0	0	0	502	503	0	499	38	8	
12	0	0	0	0	506	504	0	488	39	8	
13	0	0	0	0	510	504	0	488	38	8	
14	0	0	0	0	500	504	0	487	39	8	
15	0	0	0	0	512	504	0	484	39	8	
0	0	0	0	0	511	504	0	482	39	8	
1	0	0	0	0	509	504	0	483	39	8	
2	0	0	0	0	505	504	0	483	38	8	
3	0	0	0	0	506	504	0	486	39	8	
4	0	0	0	0	503	504	0	489	39	8	
5	0	0	0	0	512	504	0	490	38	8	
6	0	0	0	0	508	505	0	491	39	8	
7	0	0	0	0	508	504	0	487	39	8	
8	0	0	0	0	505	505	0	487	39	8	
9	0	0	0	0	512	504	0	485	39	8	
10	0	0	0	0	512	504	0	488	38	8	
11	0	0	0	0	501	504	0	490	39	8	
12	0	0	0	0	504	504	0	502	39	8	
13	0	0	0	0	501	504	0	529	38	8	
14	0	0	0	0	509	504	0	538	39	8	
15	0	0	0	0	509	504	0	553	39	8	
0	0	0	0	0	516	504	0	565	39	8	
1	0	0	0	0	509	504	0	566	39	8	
2	0	0	0	0	507	504	0	581	39	8	
3	0	0	0	0	508	504	0	577	39	8	
4	0	0	0	0	505	504	0	580	39	8	
5	0	0	0	0	499	504	0	587	38	8	
6	0	0	0	0	511	504	0	580	39	8	
7	0	0	0	0	509	504	0	586	39	8	
8	0	0	0	0	504	504	0	575	39	8	
9	0	0	0	0	509	504	0	567	39	8	
10	0	0	0	0	517	504	0	552	39	8	
11	0	0	0	0	512	504	0	537	39	8	
12	0	0	0	0	505	504	0	525	39	8	
13	0	0	0	0	507	504	0	516	38	8	
14	0	0	0	0	519	504	0	507	38	8	
15	0	0	0	0	504	505	0	501	38	8	
0	0	0	0	0	504	505	0	494	38	8	
1	0	0	0	0	505	505	0	492	39	8	
2	0	0	0	0	503	505	0	494	38	8	
3	0	0	0	0	508	505	0	492	39	8	
4	0	0	0	0	501	506	0	497	39	8	
5	0	0	0	0	504	505	0	496	38	8	
6	0	0	0	0	508	505	0	497	39	8	
7	0	0	0	0	514	505	0	492	39	8	
8	0	0	0	0	516	505	0	491	38	8	
9	0	0	0	0	516	505	0	492	39	8	
10	0	0	0	0	498	505	0	495	39	8	
11	0	0	0	0	501	505	0	498	39	8	
12	0	0	0	0	503	505	0	500	39	8	
13	0	0	0	0	508	505	0	502	38	8	
14	0	0	0	0	505	505	0	502	39	8	
15	0	0	0	0	515	504	0	498	39	8	
0	0	0	0	0	507	504	0	495	39	8	
1	0	0	0	0	503	504	0	496	39	8	
2	0	0	0	0	502	504	0	497	39	8	
3	0	0	0	0	507	505	0	502	39	8	
4	0	0	0	0	514	505	0	500	39	8	
5	0	0	0	0	511	505	0	505	38	8	
6	0	0	0	0	505	506	0	528	39	8	
7	0	0	0	0	509	506	0	538	39	8	
8	0	0	0	0	509	505	0	547	39	8	
9	0	0	0	0	510	506	0	568	39	8	
10	0	0	0	0	504	505	0	571	39	8	
11	0	0	0	0	512	505	0	584	39	8	
12	0	0	0	0	503	504	0	583	39	8	
13	0	0	0	0	507	504	0	583	38	8	
14	0	0	0	0	508	505	0	591	39	8	
15	0	0	0	0	503	505	0	584	39	8	
0	0	0	0	0	511	505	0	592	39	8	
1	0	0	0	0	504	504	0	587	39	8	
2	0	0	0	0	505	505	0	581	39	8	
3	0	0	0	0	510	505	0	568	39	8	
4	0	0	0	0	510	505	0	553	39	8	
5	0	0	0	0	504	504	0	537	38	8	
6	0	0	0	0	516	504	0	525	39	8	
7	0	0	0	0	502	505	0	518	39	8	
8	0	0	0	0	507	505	0	514	38	8	
9	0	0	0	0	503	505	0	510	39	8	
10	0	0	0	0	502	505	0	508	39	8	
11	0	0	0	0	507	504	0	505	38	8	
12	0	0	0	0	508	504	0	504	39	8	
13	0	0	0	0	507	504	0	503	38	8	
14	0	0	0	0	500	504	0	503	38	8	
15	0	0	0	0	510	504	0	497	39	8	
0	0	0	0	0	511	504	0	493	38	8	
1	0	0	0	0	505	504	0	496	39	8	
2	0	0	0	0	506	503	0	495	39	8	
3	0	0	0	0	511	504	0	499	39	8	
4	0	0	0	0	512	504	0	498	39	8	
5	0	0	0	0	502	504	0	500	38	8	
6	0	0	0	0	516	504	0	497	39	8	
7	0	0	0	0	508	504	0	496	39	8	
8	0	0	0	0	507	504	0	490	38	8	
9	0	0	0	0	508	504	0	498	39	8	
10	0	0	0	0	510	504	0	492	39	8	
11	0	0	0	0	508	504	0	495	39	8	
12	0	0	0	0	505	504	0	498	39	8	
13	0	0	0	0	512	504	0	500	38	8	
14	0	0	0	0	503	504	0	502	39	8	
15	0	0	0	0	510	504	0	520	39	8	
0	0	0	0	0	509	504	0	536	39	8	
1	0	0	0	0	509	504	0	547	39	8	
2	0	0	0	0	507	504	0	571	38	8	
3	0	0	0	0	508	504	0	576	39	8	
4	0	0	0	0	507	504	0	586	39	8	
5	0	0	0	0	508	504	0	590	38	8	
6	0	0	0	0	513	504	0	587	39	8	
7	0	0	0	0	508	504	0	594	39	8	
8	0	0	0	0	506	504	0	591	39	8	
9	0	0	0	0	505	504	0	591	39	8	
10	0	0	0	0	503	504	0	591	39	8	
11	0	0	0	0	509	503	0	582	38	8	
12	0	0	0	0	507	503	0	574	39	8	
13	0	0	0	0	516	503	0	582	38	8	
14	0	0	0	0	510	504	0	578	39	8	
15	0	0	0	0	503	504	0	569	39	8	
0	0	0	0	0	503	504	0	559	39	8	
1	0	0	0	0	511	504	0	545	39	8	
2	0	0	0	0	500	504	0	533	39	8	
3	0	0	0	0	509	504	0	520	39	8	
4	0	0	0	0	510	504	0	513	39	8	
5	0	0	0	0	507	504	0	507	38	8	
6	0	0	0	0	511	504	0	504	39	8	
7	0	0	0	0	512	504	0	497	39	8	
8	0	0	0	0	505	504	0	493	39	8	
9	0	0	0	0	508	504	0	493	39	8	
10	0	0	0	0	512	503	0	494	39	8	
11	0	0	0	0	503	504	0	495	39	8	
12	0	0	0	0	509	503	0	498	39	8	
13	0	0	0	0	503	503	0	499	38	8	
14	0	0	0	0	507	503	0	497	39	8	
15	0	0	0	0	509	503	0	496	39	8	
0	0	0	0	0	501	504	0	492	39	8	
1	0	0	0	0	511	504	0	494	39	8	
2	0	0	0	0	507	504	0	493	39	8	
3	0	0	0	0	505	504	0	507	39	8	
4	0	0	0	0	508	503	0	497	39	8	
5	0	0	0	0	510	503	0	515	38	8	
6	0	0	0	0	508	504	0	499	39	8	
7	0	0	0	0	507	504	0	496	39	8	
8	0	0	0	0	501	504	0	494	39	8	
9	0	0	0	0	510	504	0	494	39	8	
10	0	0	0	0	507	504	0	494	39	8	
11	0	0	0	0	502	504	0	497	39	8	
12	0	0	0	0	511	504	0	518	39	8	
13	0	0	0	0	510	505	0	540	38	8	
14	0	0	0	0	509	504	0	550	39	8	
15	0	0	0	0	507	505	0	569	39	8	
0	0	0	0	0	509	505	0	568	39	8	
1	0	0	0	0	508	505	0	573	39	8	
2	0	0	0	0	506	505	0	582	39	8	
3	0	0	0	0	512	505	0	576	39	8	
4	0	0	0	0	504	504	0	585	39	8	
5	0	0	0	0	504	505	0	574	38	8	
6	0	0	0	0	508	504	0	574	39	8	
7	0	0	0	0	503	504	0	569	39	8	
8	0	0	0	0	508	504	0	559	39	8	
9	0	0	0	0	508	505	0	547	39	8	
10	0	0	0	0	503	505	0	534	39	8	
11	0	0	0	0	512	504	0	518	39	8	
12	0	0	0	0	517	505	0	514	39	8	
13	0	0	0	0	506	505	0	501	38	8	
14	0	0	0	0	500	504	0	497	39	8	
15	0	0	0	0	501	505	0	493	39	8	
0	0	0	0	0	512	504	0	491	39	8	
1	0	0	0	0	505	504	0	490	39	8	
2	0	0	0	0	511	504	0	490	39	8	
3	0	0	0	0	504	504	0	490	39	8	
4	0	0	0	0	507	504	0	491	39	8	
5	0	0	0	0	508	504	0	489	38	8	
6	0	0	0	0	507	504	0	489	38	8	
7	0	0	0	0	507	504	0	485	38	8	
8	0	0	0	0	506	504	0	482	39	8	
9	0	0	0	0	500	504	0	481	39	8	
10	0	0	0	0	512	504	0	483	39	8	
11	0	0	0	0	504	504	0	486	39	8	
12	0	0	0	0	511	504	0	488	39	8	
13	0	0	0	0	506	505	0	493	38	8	
14	0	0	0	0	508	505	0	491	38	8	
15	0	0	0	0	511	505	0	499	39	8	
0	0	0	0	0	509	505	0	485	39	8	
1	0	0	0	0	508	505	0	485	39	8	
2	0	0	0	0	508	505	0	487	39	8	
3	0	0	0	0	507	506	0	487	39	8	
4	0	0	0	0	505	506	0	487	39	8	
5	0	0	0	0	505	507	0	488	38	8	
6	0	0	0	0	502	506	0	486	38	8	
7	0	0	0	0	504	507	0	482	38	8	
8	0	0	0	0	508	506	0	477	38	8	
9	0	0	0	0	503	506	0	476	39	8	
10	0	0	0	0	510	506	0	478	38	8	
11	0	0	0	0	510	506	0	481	38	8	
12	0	0	0	0	510	506	0	483	39	8	
13	0	0	0	0	514	505	0	485	38	8	
14	0	0	0	0	510	504	0	483	38	8	
15	0	0	0	0	505	505	0	478	38	8	
0	0	0	0	0	508	504	0	474	38	8	
1	0	0	0	0	506	504	0	474	39	8	
2	0	0	0	0	510	504	0	477	38	8	
3	0	0	0	0	513	504	0	480	38	8	
4	0	0	0	0	504	504	0	483	38	8	
5	0	0	0	0	509	504	0	484	38	8	
6	0	0	0	0	503	504	0	486	39	8	
7	0	0	0	0	503	504	0	482	39	8	
8	0	0	0	0	509	504	0	480	38	8	
9	0	0	0	0	504	504	0	495	39	8	
10	0	0	0	0	510	504	0	520	39	8	
11	0	0	0	0	507	504	0	533	39	8	
12	0	0	0	0	507	503	0	551	39	8	
13	0	0	0	0	511	504	0	559	38	8	
14	0	0	0	0	507	504	0	559	39	8	
15	0	0	0	0	507	504	0	585	39	8	
0	0	0	0	0	514	504	0	564	38	8	
1	0	0	0	0	511	504	0	572	39	8	
2	0	0	0	0	513	504	0	568	39	8	
3	0	0	0	0	505	505	0	564	39	8	
4	0	0	0	0	505	504	0	570	39	8	
5	0	0	0	0	505	504	0	563	38	8	
6	0	0	0	0	513	504	0	569	38	8	
7	0	0	0	0	513	504	0	565	38	8	
8	0	0	0	0	504	504	0	559	38	8	
9	0	0	0	0	511	503	0	565	39	8	
10	0	0	0	0	513	504	0	555	38	8	
11	0	0	0	0	505	504	0	561	38	8	
12	0	0	0	0	510	504	0	561	39	8	
13	0	0	0	0	502	504	0	559	38	8	
14	0	0	0	0	502	503	0	563	39	8	
15	0	0	0	0	512	503	0	551	38	8	
0	0	0	0	0	512	504	0	559	39	8	
1	0	0	0	0	511	504	0	554	39	8	
2	0	0	0	0	510	505	0	555	39	8	
3	0	0	0	0	512	505	0	536	39	8	
4	0	0	0	0	506	505	0	521	39	8	
5	0	0	0	0	505	504	0	505	38	8	
6	0	0	0	0	507	504	0	492	39	8	
7	0	0	0	0	509	504	0	496	38	8	
8	0	0	0	0	497	505	0	511	39	8	
9	0	0	0	0	505	504	0	515	39	8	
10	0	0	0	0	508	505	0	518	39	8	
11	0	0	0	0	510	504	0	512	39	8	
12	0	0	0	0	515	505	0	505	39	8	
13	0	0	0	0	512	504	0	498	38	8	
14	0	0	0	0	507	504	0	492	39	8	
15	0	0	0	0	503	504	0	487	39	8	
0	0	0	0	0	508	504	0	481	38	8	
1	0	0	0	0	508	504	0	478	39	8	
2	0	0	0	0	514	504	0	476	39	8	
3	0	0	0	0	505	504	0	479	38	8	
4	0	0	0	0	502	504	0	477	39	8	
5	0	0	0	0	507	504	0	479	38	8	
6	0	0	0	0	506	504	0	476	39	8	
7	0	0	0	0	516	504	0	475	39	8	
8	0	0	0	0	511	504	0	471	39	8	
9	0	0	0	0	502	504	0	472	39	8	
10	0	0	0	0	501	504	0	473	39	8	
11	0	0	0	0	505	504	0	479	39	8	
12	0	0	0	0	508	504	0	479	39	8	
13	0	0	0	0	504	504	0	489	38	8	
14	0	0	0	0	509	504	0	482	39	8	
15	0	0	0	0	504	504	0	479	39	8	
0	0	0	0	0	506	504	0	478	39	8	
1	0	0	0	0	505	504	0	479	39	8	
2	0	0	0	0	515	504	0	483	39	8	
3	0	0	0	0	513	504	0	484	39	8	
4	0	0	0	0	504	504	0	485	39	8	
5	0	0	0	0	503	504	0	488	38	8	
6	0	0	0	0	509	504	0	493	39	8	
7	0	0	0	0	505	504	0	513	39	8	
8	0	0	0	0	507	504	0	522	39	8	
9	0	0	0	0	503	504	0	539	39	8	
10	0	0	0	0	510	504	0	550	39	8	
11	0	0	0	0	521	504	0	551	39	8	
12	0	0	0	0	505	505	0	566	39	8	
13	0	0	0	0	506	505	0	564	38	8	
14	0	0	0	0	511	505	0	569	39	8	
15	0	0	0	0	507	506	0	567	39	8	
0	0	0	0	0	506	506	0	557	39	8	
1	0	0	0	0	505	505	0	564	39	8	
2	0	0	0	0	505	506	0	561	39	8	
3	0	0	0	0	505	505	0	556	39	8	
4	0	0	0	0	515	505	0	544	38	8	
5	0	0	0	0	508	505	0	531	38	8	
6	0	0	0	0	507	504	0	520	39	8	
7	0	0	0	0	504	504	0	512	38	8	
8	0	0	0	0	510	504	0	501	39	8	
9	0	0	0	0	509	504	0	499	39	8	
10	0	0	0	0	508	504	0	495	39	8	
11	0	0	0	0	512	504	0	504	39	8	
12	0	0	0	0	510	504	0	492	39	8	
13	0	0	0	0	506	503	0	491	38	8	
14	0	0	0	0	499	504	0	489	38	8	
15	0	0	0	0	506	504	0	485	39	8	
0	0	0	0	0	509	504	0	482	38	8	
1	0	0	0	0	508	504	0	483	39	8	
2	0	0	0	0	515	504	0	484	38	8	
3	0	0	0	0	499	504	0	488	39	8	
4	0	0	0	0	505	503	0	488	38	8	
5	0	0	0	0	513	503	0	492	38	8	
6	0	0	0	0	509	504	0	489	39	8	
7	0	0	0	0	511	504	0	485	38	8	
8	0	0	0	0	511	504	0	483	38	8	
9	0	0	0	0	508	504	0	484	39	8	
10	0	0	0	0	512	504	0	489	39	8	
11	0	0	0	0	506	504	0	491	38	8	
12	0	0	0	0	515	504	0	495	39	8	
13	0	0	0	0	509	504	0	494	38	8	
14	0	0	0	0	503	503	0	501	39	8	
15	0	0	0	0	500	504	0	495	39	8	
0	0	0	0	0	506	504	0	519	39	8	
1	0	0	0	0	512	504	0	537	39	8	
2	0	0	0	0	508	504	0	551	39	8	
3	0	0	0	0	502	503	0	568	39	8	
4	0	0	0	0	510	503	0	566	39	8	
5	0	0	0	0	510	504	0	575	38	8	
6	0	0	0	0	513	504	0	575	39	8	
7	0	0	0	0	507	504	0	571	39	8	
8	0	0	0	0	511	504	0	575	39	8	
9	0	0	0	0	505	504	0	566	39	8	
10	0	0	0	0	497	504	0	574	39	8	
11	0	0	0	0	509	505	0	572	39	8	
12	0	0	0	0	498	505	0	565	39	8	
13	0	0	0	0	509	505	0	560	38	8	
14	0	0	0	0	513	505	0	571	39	8	
15	0	0	0	0	511	505	0	564	39	8	
0	0	0	0	0	501	505	0	558	39	8	
1	0	0	0	0	507	505	0	547	39	8	
2	0	0	0	0	504	504	0	529	39	8	
3	0	0	0	0	507	504	0	518	39	8	
4	0	0	0	0	509	504	0	507	39	8	
5	0	0	0	0	508	504	0	501	38	8	
6	0	0	0	0	507	504	0	497	39	8	
7	0	0	0	0	510	504	0	493	38	8	
8	0	0	0	0	511	504	0	487	39	8	
9	0	0	0	0	508	504	0	485	39	8	
10	0	0	0	0	504	504	0	483	38	8	
11	0	0	0	0	499	504	0	485	39	8	
12	0	0	0	0	509	504	0	485	39	8	
13	0	0	0	0	514	504	0	487	38	8	
14	0	0	0	0	507	505	0	486	39	8	
15	0	0	0	0	505	505	0	483	39	8	
0	0	0	0	0	508	505	0	483	39	8	
1	0	0	0	0	505	505	0	480	39	8	
2	0	0	0	0	503	505	0	484	38	8	
3	0	0	0	0	505	505	0	483	38	8	
4	0	0	0	0	509	505	0	484	38	8	
5	0	0	0	0	505	505	0	484	38	8	
6	0	0	0	0	509	505	0	484	38	8	
7	0	0	0	0	510	505	0	481	38	8	
8	0	0	0	0	507	506	0	477	38	8	
9	0	0	0	0	509	506	0	478	39	8	
10	0	0	0	0	508	506	0	481	39	8	
11	0	0	0	0	514	506	0	485	39	8	
12	0	0	0	0	507	506	0	486	39	8	
13	0	0	0	0	510	506	0	488	38	8	
14	0	0	0	0	502	506	0	484	38	8	
15	0	0	0	0	503	506	0	495	39	8	
0	0	0	0	0	510	506	0	512	39	8	
1	0	0	0	0	511	506	0	532	39	8	
2	0	0	0	0	508	505	0	543	39	8	
3	0	0	0	0	502	505	0	552	39	8	
4	0	0	0	0	508	505	0	555	39	8	
5	0	0	0	0	511	505	0	563	38	8	
6	0	0	0	0	511	505	0	556	39	8	
7	0	0	0	0	502	504	0	562	39	8	
8	0	0	0	0	513	504	0	557	39	8	
9	0	0	0	0	510	504	0	556	39	8	
10	0	0	0	0	507	504	0	563	39	8	
11	0	0	0	0	512	504	0	557	39	8	
12	0	0	0	0	506	504	0	553	39	8	
13	0	0	0	0	504	505	0	556	38	8	
14	0	0	0	0	504	505	0	560	39	8	
15	0	0	0	0	507	505	0	551	39	8	
0	0	0	0	0	505	505	0	548	39	8	
1	0	0	0	0	514	505	0	530	39	8	
2	0	0	0	0	512	505	0	516	39	8	
3	0	0	0	0	510	505	0	506	39	8	
4	0	0	0	0	515	505	0	498	39	8	
5	0	0	0	0	504	505	0	492	38	8	
6	0	0	0	0	510	505	0	487	39	8	
7	0	0	0	0	504	505	0	481	38	8	
8	0	0	0	0	503	505	0	477	38	8	
9	0	0	0	0	513	506	0	475	39	8	
10	0	0	0	0	501	506	0	477	38	8	
11	0	0	0	0	509	506	0	479	39	8	
12	0	0	0	0	514	506	0	480	38	8	
13	0	0	0	0	502	506	0	482	38	8	
14	0	0	0	0	503	506	0	480	39	8	
15	0	0	0	0	510	506	0	480	39	8	
0	0	0	0	0	501	506	0	473	38	8	
1	0	0	0	0	509	506	0	476	39	8	
2	0	0	0	0	503	506	0	475	39	8	
3	0	0	0	0	506	506	0	476	39	8	
4	0	0	0	0	506	506	0	479	39	8	
5	0	0	0	0	507	506	0	480	38	8	
6	0	0	0	0	507	506	0	476	39	8	
7	0	0	0	0	504	506	0	471	38	8	
8	0	0	0	0	513	506	0	466	38	8	
9	0	0	0	0	513	506	0	469	39	8	
10	0	0	0	0	507	506	0	471	38	8	
11	0	0	0	0	515	506	0	472	38	8	
12	0	0	0	0	504	506	0	487	39	8	
13	0	0	0	0	506	506	0	514	38	8	
14	0	0	0	0	508	505	0	524	38	8	
15	0	0	0	0	507	505	0	540	38	8	
0	0	0	0	0	504	505	0	544	38	8	
1	0	0	0	0	505	505	0	545	39	8	
2	0	0	0	0	509	504	0	556	38	8	
3	0	0	0	0	506	505	0	549	38	8	
4	0	0	0	0	505	504	0	558	38	8	
5	0	0	0	0	515	504	0	555	38	8	
6	0	0	0	0	510	505	0	553	38	8	
7	0	0	0	0	502	505	0	552	38	8	
8	0	0	0	0	514	505	0	539	38	8	
9	0	0	0	0	504	504	0	531	39	8	
10	0	0	0	0	508	504	0	518	39	8	
11	0	0	0	0	509	505	0	504	39	8	
12	0	0	0	0	501	504	0	495	39	8	
13	0	0	0	0	509	505	0	488	38	8	
14	0	0	0	0	506	505	0	483	39	8	
15	0	0	0	0	510	505	0	476	38	8	
0	0	0	0	0	509	505	0	474	39	8	
1	0	0	0	0	508	504	0	473	39	8	
2	0	0	0	0	508	504	0	474	39	8	
3	0	0	0	0	499	504	0	471	39	8	
4	0	0	0	0	511	504	0	471	39	8	
5	0	0	0	0	509	505	0	472	38	8	
6	0	0	0	0	505	505	0	470	39	8	
7	0	0	0	0	511	504	0	470	39	8	
8	0	0	0	0	506	505	0	464	39	8	
9	0	0	0	0	506	505	0	467	39	8	
10	0	0	0	0	514	505	0	464	39	8	
11	0	0	0	0	508	505	0	480	39	8	
12	0	0	0	0	504	505	0	469	39	8	
13	0	0	0	0	507	505	0	474	38	8	
14	0	0	0	0	508	504	0	470	39	8	
15	0	0	0	0	506	504	0	468	39	8	
0	0	0	0	0	510	504	0	463	39	8	
1	0	0	0	0	510	504	0	467	39	8	
2	0	0	0	0	504	504	0	468	39	8	
3	0	0	0	0	505	504	0	472	38	8	
4	0	0	0	0	505	504	0	472	39	8	
5	0	0	0	0	508	504	0	485	38	8	
6	0	0	0	0	511	504	0	508	38	8	
7	0	0	0	0	506	505	0	517	39	8	
8	0	0	0	0	508	505	0	532	38	8	
9	0	0	0	0	508	505	0	561	39	8	
10	0	0	0	0	513	505	0	546	39	8	
11	0	0	0	0	500	505	0	559	39	8	
12	0	0	0	0	509	505	0	554	39	8	
13	0	0	0	0	509	504	0	557	38	8	
14	0	0	0	0	504	504	0	555	39	8	
15	0	0	0	0	508	504	0	547	39	8	
0	0	0	0	0	504	504	0	558	38	8	
1	0	0	0	0	515	504	0	556	39	8	
2	0	0	0	0	504	504	0	561	39	8	
3	0	0	0	0	510	504	0	564	39	8	
4	0	0	0	0	508	504	0	556	39	8	
5	0	0	0	0	502	504	0	551	38	8	
6	0	0	0	0	507	504	0	558	39	8	
7	0	0	0	0	511	503	0	554	39	8	
8	0	0	0	0	505	504	0	546	38	8	
9	0	0	0	0	500	504	0	534	39	8	
10	0	0	0	0	510	504	0	519	39	8	
11	0	0	0	0	506	503	0	507	39	8	
12	0	0	0	0	509	504	0	496	39	8	
13	0	0	0	0	505	504	0	489	38	8	
14	0	0	0	0	510	504	0	483	38	8	
15	0	0	0	0	504	504	0	482	39	8	
0	0	0	0	0	499	504	0	476	38	8	
1	0	0	0	0	516	504	0	472	39	8	
2	0	0	0	0	516	504	0	473	38	8	
3	0	0	0	0	507	504	0	470	38	8	
4	0	0	0	0	505	504	0	476	39	8	
5	0	0	0	0	508	504	0	473	38	8	
6	0	0	0	0	511	503	0	472	38	8	
7	0	0	0	0	504	503	0	467	39	8	
8	0	0	0	0	496	503	0	464	38	8	
9	0	0	0	0	505	504	0	466	39	8	
10	0	0	0	0	508	504	0	467	39	8	
11	0	0	0	0	506	504	0	469	39	8	
12	0	0	0	0	514	504	0	474	39	8	
13	0	0	0	0	508	503	0	474	38	8	
14	0	0	0	0	506	504	0	477	39	8	
15	0	0	0	0	508	503	0	474	39	8	
0	0	0	0	0	511	503	0	473	39	8	
1	0	0	0	0	511	503	0	475	39	8	
2	0	0	0	0	521	503	0	476	39	8	
3	0	0	0	0	508	503	0	481	38	8	
4	0	0	0	0	506	503	0	480	38	8	
5	0	0	0	0	509	502	0	482	38	8	
6	0	0	0	0	504	503	0	481	38	8	
7	0	0	0	0	501	503	0	480	38	8	
8	0	0	0	0	505	504	0	478	38	8	
9	0	0	0	0	508	504	0	478	39	8	
10	0	0	0	0	510	503	0	480	38	8	
11	0	0	0	0	507	504	0	484	39	8	
12	0	0	0	0	514	504	0	487	39	8	
13	0	0	0	0	503	504	0	492	38	8	
14	0	0	0	0	507	504	0	490	38	8	
15	0	0	0	0	512	504	0	487	39	8	
0	0	0	0	0	508	504	0	483	39	8	
1	0	0	0	0	512	504	0	493	39	8	
2	0	0	0	0	503	503	0	521	39	8	
3	0	0	0	0	497	503	0	533	39	8	
4	0	0	0	0	510	503	0	551	39	8	
5	0	0	0	0	505	503	0	561	38	8	
6	0	0	0	0	506	503	0	560	39	8	
7	0	0	0	0	507	504	0	569	39	8	
8	0	0	0	0	511	503	0	566	39	8	
9	0	0	0	0	505	504	0	567	39	8	
10	0	0	0	0	510	503	0	568	39	8	
11	0	0	0	0	505	503	0	561	39	8	
12	0	0	0	0	509	503	0	570	39	8	
13	0	0	0	0	513	503	0	564	38	8	
14	0	0	0	0	507	503	0	565	39	8	
15	0	0	0	0	511	504	0	561	39	8	
0	0	0	0	0	509	503	0	550	38	8	
1	0	0	0	0	508	504	0	558	39	8	
2	0	0	0	0	510	504	0	554	39	8	
3	0	0	0	0	500	504	0	550	38	8	
4	0	0	0	0	511	504	0	537	38	8	
5	0	0	0	0	507	504	0	525	38	8	
6	0	0	0	0	506	504	0	511	38	8	
7	0	0	0	0	510	504	0	499	38	8	
8	0	0	0	0	508	504	0	487	38	8	
9	0	0	0	0	508	504	0	499	39	8	
10	0	0	0	0	510	504	0	488	38	8	
11	0	0	0	0	513	504	0	516	38	8	
12	0	0	0	0	509	504	0	528	39	8	
13	0	0	0	0	504	504	0	543	38	8	
14	0	0	0	0	520	504	0	548	39	8	
15	0	0	0	0	499	504	0	544	39	8	
0	0	0	0	0	509	504	0	537	39	8	
1	0	0	0	0	504	504	0	524	39	8	
2	0	0	0	0	505	504	0	509	39	8	
3	0	0	0	0	512	504	0	502	39	8	
4	0	0	0	0	504	504	0	494	39	8	
5	0	0	0	0	505	504	0	489	38	8	
6	0	0	0	0	504	504	0	484	39	8	
7	0	0	0	0	521	504	0	478	39	8	
8	0	0	0	0	503	504	0	476	39	8	
9	0	0	0	0	509	504	0	472	39	8	
10	0	0	0	0	508	504	0	476	39	8	
11	0	0	0	0	508	504	0	475	39	8	
12	0	0	0	0	507	503	0	478	39	8	
13	0	0	0	0	506	504	0	478	38	8	
14	0	0	0	0	510	504	0	479	39	8	
15	0	0	0	0	510	504	0	474	39	8	
0	0	0	0	0	505	504	0	474	39	8	
1	0	0	0	0	505	504	0	472	39	8	
2	0	0	0	0	504	505	0	478	39	8	
3	0	0	0	0	510	504	0	477	39	8	
4	0	0	0	0	514	504	0	482	38	8	
5	0	0	0	0	498	504	0	484	38	8	
6	0	0	0	0	512	504	0	483	39	8	
7	0	0	0	0	503	504	0	478	39	8	
8	0	0	0	0	507	504	0	476	39	8	
9	0	0	0	0	504	504	0	476	39	8	
10	0	0	0	0	511	504	0	480	39	8	
11	0	0	0	0	509	504	0	480	39	8	
12	0	0	0	0	504	504	0	497	39	8	
13	0	0	0	0	508	504	0	524	39	8	
14	0	0	0	0	513	504	0	531	39	8	
15	0	0	0	0	503	504	0	550	39	8	
0	0	0	0	0	505	504	0	550	39	8	
1	0	0	0	0	511	504	0	553	39	8	
2	0	0	0	0	512	504	0	562	38	8	
3	0	0	0	0	509	504	0	574	38	8	
4	0	0	0	0	505	504	0	564	38	8	
5	0	0	0	0	508	504	0	563	38	8	
6	0	0	0	0	505	504	0	560	38	8	
7	0	0	0	0	500	504	0	563	38	8	
8	0	0	0	0	508	504	0	552	38	8	
9	0	0	0	0	504	504	0	545	38	8	
10	0	0	0	0	515	504	0	530	38	8	
11	0	0	0	0	513	505	0	516	38	8	
12	0	0	0	0	507	504	0	504	38	8	
13	0	0	0	0	507	504	0	496	38	8	
14	0	0	0	0	507	505	0	489	38	8	
15	0	0	0	0	511	505	0	483	38	8	
0	0	0	0	0	504	505	0	480	38	8	
1	0	0	0	0	512	505	0	478	38	8	
2	0	0	0	0	505	505	0	482	38	8	
3	0	0	0	0	494	505	0	506	38	8	
4	0	0	0	0	517	505	0	521	38	8	
5	0	0	0	0	503	505	0	534	38	8	
6	0	0	0	0	503	505	0	550	38	8	
7	0	0	0	0	503	505	0	549	38	8	
8	0	0	0	0	505	505	0	545	39	8	
9	0	0	0	0	509	505	0	532	39	8	
10	0	0	0	0	509	505	0	519	39	8	
11	0	0	0	0	509	505	0	509	39	8	
12	0	0	0	0	505	505	0	503	39	8	
13	0	0	0	0	504	505	0	494	38	8	
14	0	0	0	0	507	505	0	489	39	8	
15	0	0	0	0	511	505	0	485	39	8	
0	0	0	0	0	511	504	0	483	39	8	
1	0	0	0	0	508	504	0	481	39	8	
2	0	0	0	0	503	504	0	484	39	8	
3	0	0	0	0	509	504	0	482	39	8	
4	0	0	0	0	508	504	0	486	39	8	
5	0	0	0	0	508	504	0	484	38	8	
6	0	0	0	0	508	504	0	487	39	8	
7	0	0	0	0	514	504	0	480	39	8	
8	0	0	0	0	505	504	0	477	39	8	
9	0	0	0	0	497	505	0	477	39	8	
10	0	0	0	0	518	504	0	478	39	8	
11	0	0	0	0	503	504	0	480	39	8	
12	0	0	0	0	504	504	0	481	39	8	
13	0	0	0	0	506	504	0	480	38	8	
14	0	0	0	0	497	505	0	478	39	8	
15	0	0	0	0	504	504	0	473	39	8	
0	0	0	0	0	511	504	0	472	39	8	
1	0	0	0	0	505	504	0	471	39	8	
2	0	0	0	0	505	504	0	471	39	8	
3	0	0	0	0	509	504	0	473	39	8	
4	0	0	0	0	502	504	0	482	39	8	
5	0	0	0	0	513	505	0	511	38	8	
6	0	0	0	0	513	505	0	518	39	8	
7	0	0	0	0	508	505	0	533	39	8	
8	0	0	0	0	500	505	0	541	39	8	
9	0	0	0	0	509	505	0	543	39	8	
10	0	0	0	0	512	505	0	555	39	8	
11	0	0	0	0	506	505	0	564	39	8	
12	0	0	0	0	508	505	0	555	39	8	
13	0	0	0	0	519	505	0	562	38	8	
14	0	0	0	0	506	504	0	555	39	8	
15	0	0	0	0	493	504	0	561	39	8	
0	0	0	0	0	512	505	0	551	38	8	
1	0	0	0	0	509	505	0	544	39	8	
2	0	0	0	0	505	505	0	529	38	8	
3	0	0	0	0	504	505	0	515	38	8	
4	0	0	0	0	507	505	0	502	38	8	
5	0	0	0	0	509	505	0	493	38	8	
6	0	0	0	0	509	505	0	484	38	8	
7	0	0	0	0	505	505	0	479	38	8	
8	0	0	0	0	504	505	0	471	38	8	
9	0	0	0	0	509	505	0	468	39	8	
10	0	0	0	0	505	505	0	468	39	8	
11	0	0	0	0	511	505	0	464	38	8	
12	0	0	0	0	510	505	0	468	38	8	
13	0	0	0	0	507	505	0	466	38	8	
14	0	0	0	0	504	505	0	468	39	8	
15	0	0	0	0	507	505	0	463	39	8	
0	0	0	0	0	505	505	0	461	39	8	
1	0	0	0	0	506	505	0	463	39	8	
2	0	0	0	0	506	505	0	467	39	8	
3	0	0	0	0	503	505	0	471	39	8	
4	0	0	0	0	511	505	0	472	39	8	
5	0	0	0	0	512	505	0	472	38	8	
6	0	0	0	0	513	505	0	470	39	8	
7	0	0	0	0	503	505	0	465	39	8	
8	0	0	0	0	506	506	0	462	39	8	
9	0	0	0	0	516	506	0	463	39	8	
10	0	0	0	0	502	505	0	462	39	8	
11	0	0	0	0	505	506	0	467	39	8	
12	0	0	0	0	509	506	0	468	39	8	
13	0	0	0	0	509	505	0	477	38	8	
14	0	0	0	0	508	505	0	499	39	8	
15	0	0	0	0	504	505	0	510	39	8	
0	0	0	0	0	504	505	0	520	39	8	
1	0	0	0	0	512	504	0	541	39	8	
2	0	0	0	0	510	504	0	543	39	8	
3	0	0	0	0	504	504	0	557	38	8	
4	0	0	0	0	509	504	0	557	38	8	
5	0	0	0	0	509	504	0	556	38	8	
6	0	0	0	0	503	504	0	562	38	8	
7	0	0	0	0	506	504	0	555	38	8	
8	0	0	0	0	509	504	0	561	38	8	
9	0	0	0	0	505	504	0	558	39	8	
10	0	0	0	0	512	505	0	552	39	8	
11	0	0	0	0	519	504	0	541	39	8	
12	0	0	0	0	499	504	0	524	39	8	
13	0	0	0	0	509	504	0	512	38	8	
14	0	0	0	0	505	505	0	500	39	8	
15	0	0	0	0	509	505	0	490	39	8	
0	0	0	0	0	508	505	0	481	38	8	
1	0	0	0	0	509	505	0	478	39	8	
2	0	0	0	0	507	505	0	479	38	8	
3	0	0	0	0	506	505	0	476	38	8	
4	0	0	0	0	510	505	0	479	38	8	
5	0	0	0	0	503	505	0	476	38	8	
6	0	0	0	0	511	505	0	480	38	8	
7	0	0	0	0	504	505	0	471	38	8	
8	0	0	0	0	514	505	0	469	38	8	
9	0	0	0	0	500	505	0	468	39	8	
10	0	0	0	0	508	504	0	471	38	8	
11	0	0	0	0	514	504	0	475	38	8	
12	0	0	0	0	516	504	0	479	38	8	
13	0	0	0	0	500	504	0	477	38	8	
14	0	0	0	0	508	505	0	477	38	8	
15	0	0	0	0	511	504	0	476	38	8	
0	0	0	0	0	503	504	0	472	38	8	
1	0	0	0	0	508	504	0	475	39	8	
2	0	0	0	0	517	503	0	473	38	8	
3	0	0	0	0	509	504	0	477	38	8	
4	0	0	0	0	502	504	0	480	39	8	
5	0	0	0	0	502	504	0	484	38	8	
6	0	0	0	0	504	504	0	484	38	8	
7	0	0	0	0	509	504	0	503	38	8	
8	0	0	0	0	503	504	0	518	38	8	
9	0	0	0	0	506	504	0	527	39	8	
10	0	0	0	0	512	504	0	550	39	8	
11	0	0	0	0	504	503	0	556	39	8	
12	0	0	0	0	513	502	0	565	39	8	
13	0	0	0	0	503	502	0	569	38	8	
14	0	0	0	0	511	501	0	564	39	8	
15	0	0	0	0	505	501	0	571	39	8	
0	0	0	0	0	507	500	0	567	39	8	
1	0	0	0	0	512	499	0	567	39	8	
2	0	0	0	0	511	499	0	570	39	8	
3	0	0	0	0	505	499	0	560	39	8	
4	0	0	0	0	506	498	0	555	39	8	
5	0	0	0	0	510	497	0	562	38	8	
6	0	0	0	0	510	496	0	560	39	8	
7	0	0	0	0	505	496	0	549	39	8	
8	0	0	0	0	508	495	0	543	39	8	
9	0	0	0	0	507	494	0	524	39	8	
10	0	0	0	0	513	493	0	520	39	8	
11	0	0	0	0	501	491	0	501	39	8	
12	0	0	0	0	515	490	0	496	39	8	
13	0	0	0	0	507	489	0	493	38	8	
14	0	0	0	0	502	488	0	492	39	8	
15	0	0	0	0	499	486	0	485	39	8	
0	0	0	0	0	503	485	0	482	39	8	
1	0	0	0	0	507	484	0	481	39	8	
2	0	0	0	0	511	483	0	483	39	8	
3	0	0	0	0	507	481	0	489	39	8	
4	0	0	0	0	506	480	0	486	39	8	
5	0	0	0	0	509	479	0	486	38	8	
6	0	0	0	0	504	478	0	484	39	8	
7	0	0	0	0	511	476	0	482	39	8	
8	0	0	0	0	510	475	0	480	39	8	
9	0	0	0	0	510	474	0	481	39	8	
10	0	0	0	0	511	472	0	502	39	8	
11	0	0	0	0	508	470	0	530	39	8	
12	0	0	0	0	508	467	0	543	39	8	
13	0	0	0	0	504	466	0	564	38	8	
14	0	0	0	0	508	463	0	563	39	8	
15	0	0	0	0	506	461	0	571	39	8	
0	0	0	0	0	508	459	0	575	39	8	
1	0	0	0	0	504	456	0	570	39	8	
2	0	0	0	0	509	454	0	561	38	8	
3	0	0	0	0	508	452	0	547	38	8	
4	0	0	0	0	510	449	0	534	38	8	
5	0	0	0	0	505	447	0	521	38	8	
6	0	0	0	0	506	444	0	513	38	8	
7	0	0	0	0	511	442	0	505	38	8	
8	0	0	0	0	504	441	0	498	38	8	
9	0	0	0	0	503	440	0	492	39	8	
10	0	0	0	0	503	440	0	493	38	8	
11	0	0	0	0	504	440	0	490	38	8	
12	0	0	0	0	509	439	0	490	38	8	
13	0	0	0	0	504	440	0	491	38	8	
14	0	0	0	0	515	440	0	488	38	8	
15	0	0	0	0	512	441	0	484	38	8	
0	0	0	0	0	512	442	0	481	38	8	
1	0	0	0	0	508	443	0	483	39	8	
2	0	0	0	0	507	444	0	483	39	8	
3	0	0	0	0	503	445	0	484	38	8	
4	0	0	0	0	504	446	0	486	39	8	
5	0	0	0	0	506	446	0	488	38	8	
6	0	0	0	0	507	447	0	488	38	8	
7	0	0	0	0	517	448	0	487	38	8	
8	0	0	0	0	517	448	0	484	38	8	
9	0	0	0	0	505	448	0	487	39	8	
10	0	0	0	0	504	448	0	487	38	8	
11	0	0	0	0	505	447	0	493	39	8	
12	0	0	0	0	508	447	0	491	39	8	
13	0	0	0	0	507	446	0	501	38	8	
14	0	0	0	0	506	445	0	492	39	8	
15	0	0	0	0	509	444	0	491	39	8	
0	0	0	0	0	509	443	0	487	38	8	
1	0	0	0	0	510	442	0	489	39	8	
2	0	0	0	0	509	440	0	491	39	8	
3	0	0	0	0	510	439	0	494	39	8	
4	0	0	0	0	515	438	0	496	39	8	
5	0	0	0	0	505	437	0	498	38	8	
6	0	0	0	0	509	435	0	499	39	8	
7	0	0	0	0	509	434	0	496	39	8	
8	0	0	0	0	513	434	0	492	39	8	
9	0	0	0	0	507	434	0	492	39	8	
10	0	0	0	0	510	434	0	496	39	8	
11	0	0	0	0	502	434	0	494	38	8	
12	0	0	0	0	508	434	0	497	39	8	
13	0	0	0	0	504	435	0	494	38	8	
14	0	0	0	0	508	435	0	495	39	8	
15	0	0	0	0	504	436	0	491	39	8	
0	0	0	0	0	508	438	0	489	38	8	
1	0	0	0	0	508	438	0	487	39	8	
2	0	0	0	0	504	440	0	492	39	8	
3	0	0	0	0	509	440	0	491	39	8	
4	0	0	0	0	504	442	0	504	39	8	
5	0	0	0	0	511	443	0	494	38	8	
6	0	0	0	0	506	443	0	491	39	8	
7	0	0	0	0	505	444	0	487	39	8	
8	0	0	0	0	510	445	0	485	39	8	
9	0	0	0	0	512	446	0	485	39	8	
10	0	0	0	0	509	447	0	488	39	8	
11	0	0	0	0	501	448	0	490	39	8	
12	0	0	0	0	507	450	0	493	39	8	
13	0	0	0	0	508	451	0	494	38	8	
14	0	0	0	0	507	453	0	491	39	8	
15	0	0	0	0	509	455	0	486	39	8	
0	0	0	0	0	503	456	0	483	39	8	
1	0	0	0	0	500	458	0	484	39	8	
2	0	0	0	0	515	459	0	494	38	8	
3	0	0	0	0	513	461	0	525	39	8	
4	0	0	0	0	499	462	0	534	38	8	
5	0	0	0	0	510	463	0	553	38	8	
6	0	0	0	0	513	465	0	559	38	8	
7	0	0	0	0	507	467	0	557	39	8	
8	0	0	0	0	504	469	0	568	39	8	
9	0	0	0	0	504	472	0	568	39	8	
10	0	0	0	0	510	475	0	573	39	8	
11	0	0	0	0	508	478	0	575	39	8	
12	0	0	0	0	513	481	0	568	39	8	
13	0	0	0	0	507	484	0	578	38	8	
14	0	0	0	0	503	487	0	572	39	8	
15	0	0	0	0	503	490	0	574	39	8	
0	0	0	0	0	511	494	0	570	39	8	
1	0	0	0	0	504	496	0	563	39	8	
2	0	0	0	0	509	500	0	571	39	8	
3	0	0	0	0	513	502	0	566	39	8	
4	0	0	0	0	506	506	0	567	39	8	
5	0	0	0	0	509	508	0	572	38	8	
6	0	0	0	0	508	512	0	565	39	8	
7	0	0	0	0	511	514	0	568	39	8	
8	0	0	0	0	504	511	0	558	39	8	
9	0	0	0	0	512	509	0	556	39	8	
10	0	0	0	0	506	503	0	563	39	8	
11	0	0	0	0	504	497	0	554	39	8	
12	0	0	0	0	509	489	0	563	39	8	
13	0	0	0	0	510	482	0	557	38	8	
14	0	0	0	0	512	472	0	559	39	8	
15	0	0	0	0	509	464	0	556	39	8	
0	0	0	0	0	510	453	0	545	39	8	
1	0	0	0	0	507	445	0	535	39	8	
2	0	0	0	0	498	435	0	520	39	8	
3	0	0	0	0	509	426	0	505	39	8	
4	0	0	0	0	508	416	0	495	39	8	
5	0	0	0	0	505	408	0	487	38	8	
6	0	0	0	0	504	398	0	483	38	8	
7	0	0	0	0	504	391	0	477	39	8	
8	0	0	0	0	503	392	0	475	39	8	
9	0	0	0	0	511	395	0	473	39	8	
10	0	0	0	0	511	404	0	473	39	8	
11	0	0	0	0	510	412	0	476	39	8	
12	0	0	0	0	511	427	0	476	38	8	
13	0	0	0	0	509	438	0	478	38	8	
14	0	0	0	0	515	454	0	475	39	8	
15	0	0	0	0	510	466	0	474	39	8	
0	0	0	0	0	514	483	0	469	38	8	
1	0	0	0	0	509	498	0	470	39	8	
2	0	0	0	0	506	515	0	469	39	8	
3	0	0	0	0	505	530	0	474	39	8	
4	0	0	0	0	504	547	0	472	39	8	
5	0	0	0	0	507	562	0	478	38	8	
6	0	0	0	0	501	580	0	475	39	8	
7	0	0	0	0	514	594	0	473	39	8	
8	0	0	0	0	512	605	0	470	38	8	
9	0	0	0	0	507	614	0	470	39	8	
10	0	0	0	0	508	621	0	472	38	8	
11	0	0	0	0	510	625	0	472	38	8	
12	0	0	0	0	508	629	0	472	38	8	
13	0	0	0	0	508	632	0	499	38	8	
14	0	0	0	0	508	636	0	508	38	8	
15	0	0	0	0	508	638	0	514	38	8	
0	0	0	0	0	508	639	0	531	38	8	
1	0	0	0	0	505	641	0	540	39	8	
2	0	0	0	0	508	642	0	544	39	8	
3	0	0	0	0	510	643	0	557	39	8	
4	0	0	0	0	510	645	0	555	38	8	
5	0	0	0	0	506	645	0	564	38	8	
6	0	0	0	0	507	646	0	555	38	8	
7	0	0	0	0	504	647	0	551	39	8	
8	0	0	0	0	509	647	0	554	38	8	
9	0	0	0	0	503	648	0	548	39	8	
10	0	0	0	0	507	648	0	542	39	8	
11	0	0	0	0	511	647	0	528	39	8	
12	0	0	0	0	502	648	0	516	39	8	
13	0	0	0	0	515	647	0	504	38	8	
14	0	0	0	0	503	647	0	497	39	8	
15	0	0	0	0	512	646	0	492	39	8	
0	0	0	0	0	506	646	0	487	38	8	
1	0	0	0	0	505	647	0	484	39	8	
2	0	0	0	0	503	646	0	483	38	8	
3	0	0	0	0	505	646	0	482	39	8	
4	0	0	0	0	514	646	0	483	39	8	
5	0	0	0	0	505	646	0	482	38	8	
6	0	0	0	0	504	646	0	480	39	8	
7	0	0	0	0	508	645	0	480	39	8	
8	0	0	0	0	503	645	0	474	39	8	
9	0	0	0	0	507	644	0	475	39	8	
10	0	0	0	0	511	643	0	473	39	8	
11	0	0	0	0	506	643	0	478	39	8	
12	0	0	0	0	509	642	0	478	39	8	
13	0	0	0	0	511	641	0	483	38	8	
14	0	0	0	0	503	641	0	479	39	8	
15	0	0	0	0	506	639	0	478	38	8	
0	0	0	0	0	508	639	0	474	39	8	
1	0	0	0	0	512	637	0	480	39	8	
2	0	0	0	0	506	636	0	476	39	8	
3	0	0	0	0	506	635	0	478	39	8	
4	0	0	0	0	507	634	0	477	39	8	
5	0	0	0	0	505	633	0	478	38	8	
6	0	0	0	0	502	632	0	484	39	8	
7	0	0	0	0	506	631	0	507	39	8	
8	0	0	0	0	507	629	0	516	39	8	
9	0	0	0	0	507	626	0	533	39	8	
10	0	0	0	0	510	624	0	547	39	8	
11	0	0	0	0	506	621	0	551	39	8	
12	0	0	0	0	510	617	0	569	39	8	
13	0	0	0	0	511	615	0	569	38	8	
14	0	0	0	0	509	611	0	576	39	8	
15	0	0	0	0	505	608	0	572	39	8	
0	0	0	0	0	508	605	0	570	39	8	
1	0	0	0	0	507	601	0	569	39	8	
2	0	0	0	0	504	598	0	565	39	8	
3	0	0	0	0	508	595	0	560	39	8	
4	0	0	0	0	515	592	0	560	39	8	
5	0	0	0	0	508	588	0	533	38	8	
6	0	0	0	0	508	585	0	521	38	8	
7	0	0	0	0	510	582	0	508	39	8	
8	0	0	0	0	501	577	0	519	39	8	
9	0	0	0	0	503	574	0	538	39	8	
10	0	0	0	0	508	568	0	540	39	8	
11	0	0	0	0	503	564	0	533	39	8	
12	0	0	0	0	505	558	0	524	39	8	
13	0	0	0	0	518	553	0	511	38	8	
14	0	0	0	0	509	548	0	500	39	8	
15	0	0	0	0	503	544	0	491	39	8	
0	0	0	0	0	497	539	0	486	38	8	
1	0	0	0	0	500	534	0	482	39	8	
2	0	0	0	0	509	529	0	484	39	8	
3	0	0	0	0	511	525	0	487	39	8	
4	0	0	0	0	507	520	0	490	39	8	
5	0	0	0	0	502	515	0	493	38	8	
6	0	0	0	0	509	511	0	491	39	8	
7	0	0	0	0	516	506	0	487	38	8	
8	0	0	0	0	510	503	0	486	38	8	
9	0	0	0	0	506	499	0	489	39	8	
10	0	0	0	0	510	496	0	491	39	8	
11	0	0	0	0	509	493	0	496	38	8	
12	0	0	0	0	508	491	0	496	39	8	
13	0	0	0	0	505	488	0	497	38	8	
14	0	0	0	0	504	486	0	497	38	8	
15	0	0	0	0	500	483	0	496	39	8	
0	0	0	0	0	508	480	0	493	39	8	
1	0	0	0	0	511	478	0	493	39	8	
2	0	0	0	0	513	476	0	509	39	8	
3	0	0	0	0	500	475	0	539	39	8	
4	0	0	0	0	510	472	0	550	39	8	
5	0	0	0	0	507	471	0	570	38	8	
6	0	0	0	0	508	469	0	570	39	8	
7	0	0	0	0	507	467	0	569	39	8	
8	0	0	0	0	507	464	0	579	39	8	
9	0	0	0	0	508	463	0	576	39	8	
10	0	0	0	0	506	460	0	584	39	8	
11	0	0	0	0	512	457	0	581	39	8	
12	0	0	0	0	510	455	0	578	39	8	
13	0	0	0	0	509	453	0	584	38	8	
14	0	0	0	0	507	451	0	579	39	8	
15	0	0	0	0	509	448	0	584	39	8	
0	0	0	0	0	508	445	0	580	39	8	
1	0	0	0	0	508	444	0	571	39	8	
2	0	0	0	0	508	441	0	560	39	8	
3	0	0	0	0	511	440	0	544	39	8	
4	0	0	0	0	511	437	0	529	39	8	
5	0	0	0	0	510	436	0	517	38	8	
6	0	0	0	0	507	434	0	509	39	8	
7	0	0	0	0	504	432	0	503	39	8	
8	0	0	0	0	502	430	0	497	39	8	
9	0	0	0	0	510	428	0	494	39	8	
10	0	0	0	0	508	425	0	496	38	8	
11	0	0	0	0	507	423	0	498	39	8	
12	0	0	0	0	508	421	0	500	39	8	
13	0	0	0	0	513	419	0	503	38	8	
14	0	0	0	0	505	417	0	504	39	8	
15	0	0	0	0	504	415	0	501	39	8	
0	0	0	0	0	513	413	0	500	38	8	
1	0	0	0	0	503	412	0	500	39	8	
2	0	0	0	0	511	410	0	503	39	8	
3	0	0	0	0	503	408	0	505	39	8	
4	0	0	0	0	506	406	0	503	39	8	
5	0	0	0	0	507	405	0	505	38	8	
6	0	0	0	0	504	403	0	502	38	8	
7	0	0	0	0	505	402	0	501	39	8	
8	0	0	0	0	509	399	0	495	39	8	
9	0	0	0	0	501	397	0	496	39	8	
10	0	0	0	0	510	395	0	496	39	8	
11	0	0	0	0	504	393	0	500	39	8	
12	0	0	0	0	514	391	0	501	39	8	
13	0	0	0	0	507	390	0	505	38	8	
14	0	0	0	0	501	387	0	522	38	8	
15	0	0	0	0	506	386	0	542	38	8	
0	0	0	0	0	504	384	0	547	38	8	
1	0	0	0	0	507	382	0	572	39	8	
2	0	0	0	0	509	379	0	575	39	8	
3	0	0	0	0	511	378	0	584	39	8	
4	0	0	0	0	503	375	0	588	39	8	
5	0	0	0	0	505	374	0	583	38	8	
6	0	0	0	0	508	371	0	589	39	8	
7	0	0	0	0	515	369	0	579	39	8	
8	0	0	0	0	511	369	0	579	38	8	
9	0	0	0	0	513	369	0	584	39	8	
10	0	0	0	0	504	370	0	576	38	8	
11	0	0	0	0	504	371	0	566	38	8	
12	0	0	0	0	508	372	0	549	39	8	
13	0	0	0	0	503	374	0	533	38	8	
14	0	0	0	0	508	375	0	519	39	8	
15	0	0	0	0	510	376	0	510	39	8	
0	0	0	0	0	510	379	0	498	39	8	
1	0	0	0	0	509	380	0	492	39	8	
2	0	0	0	0	506	382	0	491	39	8	
3	0	0	0	0	504	384	0	490	38	8	
4	0	0	0	0	509	385	0	493	38	8	
5	0	0	0	0	506	387	0	492	38	8	
6	0	0	0	0	510	388	0	494	39	8	
7	0	0	0	0	502	390	0	485	38	8	
8	0	0	0	0	511	391	0	486	38	8	
9	0	0	0	0	504	391	0	483	39	8	
10	0	0	0	0	505	392	0	489	39	8	
11	0	0	0	0	503	393	0	487	39	8	
12	0	0	0	0	507	393	0	487	39	8	
13	0	0	0	0	507	394	0	487	38	8	
14	0	0	0	0	499	394	0	487	38	8	
15	0	0	0	0	507	395	0	484	39	8	
0	0	0	0	0	511	395	0	480	38	8	
1	0	0	0	0	504	395	0	478	39	8	
2	0	0	0	0	514	395	0	479	38	8	
3	0	0	0	0	507	396	0	479	39	8	
4	0	0	0	0	508	396	0	482	39	8	
5	0	0	0	0	508	397	0	483	38	8	
6	0	0	0	0	507	396	0	479	38	8	
7	0	0	0	0	516	397	0	476	38	8	
8	0	0	0	0	508	399	0	481	38	8	
9	0	0	0	0	512	401	0	507	39	8	
10	0	0	0	0	510	405	0	518	39	8	
11	0	0	0	0	502	408	0	535	39	8	
12	0	0	0	0	503	412	0	550	39	8	
13	0	0	0	0	509	416	0	554	38	8	
14	0	0	0	0	504	421	0	564	38	8	
15	0	0	0	0	506	424	0	555	39	8	
0	0	0	0	0	504	429	0	554	39	8	
1	0	0	0	0	509	433	0	557	39	8	
2	0	0	0	0	516	438	0	550	39	8	
3	0	0	0	0	508	443	0	562	39	8	
4	0	0	0	0	502	448	0	559	39	8	
5	0	0	0	0	504	452	0	563	38	8	
6	0	0	0	0	507	457	0	559	39	8	
7	0	0	0	0	506	462	0	546	39	8	
8	0	0	0	0	504	467	0	535	39	8	
9	0	0	0	0	508	472	0	520	39	8	
10	0	0	0	0	510	479	0	508	39	8	
11	0	0	0	0	516	484	0	495	38	8	
12	0	0	0	0	497	491	0	497	39	8	
13	0	0	0	0	515	497	0	483	38	8	
14	0	0	0	0	504	504	0	479	39	8	
15	0	0	0	0	502	509	0	474	38	8	
0	0	0	0	0	510	515	0	472	39	8	
1	0	0	0	0	508	520	0	471	39	8	
2	0	0	0	0	512	527	0	472	38	8	
3	0	0	0	0	505	532	0	473	39	8	
4	0	0	0	0	508	538	0	473	38	8	
5	0	0	0	0	508	543	0	478	38	8	
6	0	0	0	0	510	549	0	476	39	8	
7	0	0	0	0	510	554	0	483	39	8	
8	0	0	0	0	508	559	0	471	39	8	
9	0	0	0	0	508	563	0	470	39	8	
10	0	0	0	0	511	567	0	471	39	8	
11	0	0	0	0	513	571	0	474	39	8	
12	0	0	0	0	506	575	0	477	39	8	
13	0	0	0	0	500	577	0	480	38	8	
14	0	0	0	0	507	581	0	482	39	8	
15	0	0	0	0	510	584	0	483	39	8	
0	0	0	0	0	507	588	0	484	39	8	
1	0	0	0	0	505	591	0	487	39	8	
2	0	0	0	0	507	595	0	489	39	8	
3	0	0	0	0	500	596	0	487	39	8	
4	0	0	0	0	507	600	0	491	39	8	
5	0	0	0	0	500	602	0	488	38	8	
6	0	0	0	0	514	605	0	485	39	8	
7	0	0	0	0	504	608	0	479	39	8	
8	0	0	0	0	507	611	0	476	39	8	
9	0	0	0	0	511	613	0	476	39	8	
10	0	0	0	0	504	616	0	477	38	8	
11	0	0	0	0	511	618	0	480	39	8	
12	0	0	0	0	512	621	0	481	39	8	
13	0	0	0	0	508	623	0	482	38	8	
14	0	0	0	0	504	627	0	478	39	8	
15	0	0	0	0	511	629	0	477	39	8	
0	0	0	0	0	500	632	0	471	38	8	
1	0	0	0	0	505	633	0	472	39	8	
2	0	0	0	0	512	636	0	475	39	8	
3	0	0	0	0	508	639	0	480	39	8	
4	0	0	0	0	513	641	0	483	39	8	
5	0	0	0	0	509	643	0	487	38	8	
6	0	0	0	0	505	646	0	487	38	8	
7	0	0	0	0	509	648	0	481	39	8	
8	0	0	0	0	512	650	0	481	39	8	
9	0	0	0	0	503	650	0	480	39	8	
10	0	0	0	0	507	651	0	489	39	8	
11	0	0	0	0	504	650	0	504	39	8	
12	0	0	0	0	515	649	0	525	39	8	
13	0	0	0	0	508	648	0	543	38	8	
14	0	0	0	0	507	646	0	558	39	8	
15	0	0	0	0	508	644	0	570	39	8	
0	0	0	0	0	499	643	0	558	38	8	
1	0	0	0	0	509	641	0	559	39	8	
2	0	0	0	0	512	640	0	563	39	8	
3	0	0	0	0	512	639	0	561	39	8	
4	0	0	0	0	504	637	0	570	39	8	
5	0	0	0	0	511	636	0	567	38	8	
6	0	0	0	0	505	635	0	566	39	8	
7	0	0	0	0	509	633	0	587	39	8	
8	0	0	0	0	500	633	0	561	39	8	
9	0	0	0	0	508	633	0	569	39	8	
10	0	0	0	0	510	635	0	563	39	8	
11	0	0	0	0	510	636	0	566	39	8	
12	0	0	0	0	506	638	0	572	39	8	
13	0	0	0	0	506	639	0	568	38	8	
14	0	0	0	0	515	641	0	575	39	8	
15	0	0	0	0	505	642	0	563	39	8	
0	0	0	0	0	510	644	0	563	39	8	
1	0	0	0	0	509	646	0	566	39	8	
2	0	0	0	0	511	648	0	564	39	8	
3	0	0	0	0	507	650	0	574	39	8	
4	0	0	0	0	503	653	0	573	39	8	
5	0	0	0	0	513	655	0	576	38	8	
6	0	0	0	0	505	657	0	575	39	8	
7	0	0	0	0	508	657	0	561	39	8	
8	0	0	0	0	503	658	0	551	39	8	
9	0	0	0	0	507	659	0	536	39	8	
10	0	0	0	0	506	659	0	522	39	8	
11	0	0	0	0	507	658	0	511	39	8	
12	0	0	0	0	511	658	0	510	39	8	
13	0	0	0	0	511	657	0	516	38	8	
14	0	0	0	0	509	657	0	513	39	8	
15	0	0	0	0	508	655	0	531	39	8	
0	0	0	0	0	508	655	0	546	39	8	
1	0	0	0	0	507	654	0	558	39	8	
2	0	0	0	0	505	652	0	551	39	8	
3	0	0	0	0	512	651	0	541	39	8	
4	0	0	0	0	508	650	0	527	39	8	
5	0	0	0	0	508	648	0	519	38	8	
6	0	0	0	0	502	647	0	510	39	8	
7	0	0	0	0	512	646	0	505	38	8	
8	0	0	0	0	507	645	0	499	38	8	
9	0	0	0	0	507	643	0	496	39	8	
10	0	0	0	0	508	641	0	495	39	8	
11	0	0	0	0	504	639	0	496	38	8	
12	0	0	0	0	508	636	0	498	38	8	
13	0	0	0	0	513	634	0	495	38	8	
14	0	0	0	0	512	631	0	493	38	8	
15	0	0	0	0	509	630	0	487	38	8	
0	0	0	0	0	506	627	0	484	39	8	
1	0	0	0	0	509	624	0	484	39	8	
2	0	0	0	0	504	622	0	487	38	8	
3	0	0	0	0	506	619	0	487	38	8	
4	0	0	0	0	509	616	0	487	39	8	
5	0	0	0	0	508	614	0	491	38	8	
6	0	0	0	0	507	611	0	493	39	8	
7	0	0	0	0	506	609	0	492	39	8	
8	0	0	0	0	507	606	0	490	39	8	
9	0	0	0	0	506	603	0	494	39	8	
10	0	0	0	0	505	600	0	495	39	8	
11	0	0	0	0	510	596	0	496	39	8	
12	0	0	0	0	511	592	0	497	39	8	
13	0	0	0	0	507	590	0	497	38	8	
14	0	0	0	0	506	585	0	509	39	8	
15	0	0	0	0	509	582	0	530	39	8	
0	0	0	0	0	504	578	0	536	38	8	
1	0	0	0	0	503	575	0	556	39	8	
2	0	0	0	0	503	571	0	562	39	8	
3	0	0	0	0	513	568	0	568	39	8	
4	0	0	0	0	505	564	0	583	39	8	
5	0	0	0	0	507	561	0	579	38	8	
6	0	0	0	0	505	558	0	590	39	8	
7	0	0	0	0	504	555	0	582	39	8	
8	0	0	0	0	511	550	0	577	39	8	
9	0	0	0	0	507	544	0	584	39	8	
10	0	0	0	0	507	538	0	580	39	8	
11	0	0	0	0	504	532	0	573	39	8	
12	0	0	0	0	509	524	0	558	39	8	
13	0	0	0	0	503	518	0	542	38	8	
14	0	0	0	0	504	511	0	531	38	8	
15	0	0	0	0	514	505	0	522	39	8	
0	0	0	0	0	506	497	0	513	38	8	
1	0	0	0	0	509	490	0	507	39	8	
2	0	0	0	0	509	483	0	505	39	8	
3	0	0	0	0	504	476	0	506	39	8	
4	0	0	0	0	510	468	0	504	39	8	
5	0	0	0	0	510	462	0	504	38	8	
6	0	0	0	0	510	454	0	501	39	8	
7	0	0	0	0	510	448	0	497	39	8	
8	0	0	0	0	510	442	0	493	39	8	
9	0	0	0	0	504	438	0	495	39	8	
10	0	0	0	0	507	432	0	497	39	8	
11	0	0	0	0	513	428	0	498	39	8	
12	0	0	0	0	503	425	0	502	39	8	
13	0	0	0	0	504	421	0	500	38	8	
14	0	0	0	0	510	417	0	499	39	8	
15	0	0	0	0	509	415	0	496	39	8	
0	0	0	0	0	510	411	0	493	39	8	
1	0	0	0	0	499	408	0	495	39	8	
2	0	0	0	0	508	404	0	496	39	8	
3	0	0	0	0	496	402	0	499	39	8	
4	0	0	0	0	510	398	0	499	39	8	
5	0	0	0	0	505	396	0	500	38	8	
6	0	0	0	0	505	394	0	497	39	8	
7	0	0	0	0	511	391	0	502	39	8	
8	0	0	0	0	513	388	0	525	39	8	
9	0	0	0	0	507	386	0	535	39	8	
10	0	0	0	0	506	383	0	552	39	8	
11	0	0	0	0	510	382	0	566	38	8	
12	0	0	0	0	504	380	0	567	39	8	
13	0	0	0	0	508	378	0	583	38	8	
14	0	0	0	0	506	376	0	580	39	8	
15	0	0	0	0	505	375	0	580	39	8	
0	0	0	0	0	511	374	0	580	39	8	
1	0	0	0	0	509	372	0	573	39	8	
2	0	0	0	0	507	369	0	583	39	8	
3	0	0	0	0	512	368	0	577	39	8	
4	0	0	0	0	512	366	0	571	39	8	
5	0	0	0	0	505	364	0	570	38	8	
6	0	0	0	0	507	363	0	577	38	8	
7	0	0	0	0	508	362	0	568	39	8	
8	0	0	0	0	509	358	0	560	39	8	
9	0	0	0	0	506	356	0	544	39	8	
10	0	0	0	0	503	353	0	530	39	8	
11	0	0	0	0	508	350	0	518	39	8	
12	0	0	0	0	499	346	0	512	39	8	
13	0	0	0	0	511	344	0	504	38	8	
14	0	0	0	0	508	339	0	498	39	8	
15	0	0	0	0	505	337	0	492	38	8	
0	0	0	0	0	502	333	0	486	38	8	
1	0	0	0	0	502	331	0	487	39	8	
2	0	0	0	0	505	326	0	487	39	8	
3	0	0	0	0	508	323	0	487	38	8	
4	0	0	0	0	515	320	0	487	39	8	
5	0	0	0	0	507	318	0	489	38	8	
6	0	0	0	0	505	314	0	487	39	8	
7	0	0	0	0	507	312	0	483	38	8	
8	0	0	0	0	511	310	0	478	38	8	
9	0	0	0	0	508	310	0	481	39	8	
10	0	0	0	0	507	310	0	478	39	8	
11	0	0	0	0	508	311	0	480	38	8	
12	0	0	0	0	508	313	0	480	39	8	
13	0	0	0	0	509	314	0	479	38	8	
14	0	0	0	0	516	316	0	478	39	8	
15	0	0	0	0	510	318	0	476	38	8	
0	0	0	0	0	502	320	0	474	38	8	
1	0	0	0	0	502	323	0	474	39	8	
2	0	0	0	0	510	325	0	477	39	8	
3	0	0	0	0	508	327	0	476	39	8	
4	0	0	0	0	512	329	0	500	39	8	
5	0	0	0	0	510	332	0	512	38	8	
6	0	0	0	0	504	334	0	520	39	8	
7	0	0	0	0	506	336	0	532	39	8	
8	0	0	0	0	509	339	0	542	38	8	
9	0	0	0	0	511	342	0	542	39	8	
10	0	0	0	0	509	345	0	555	39	8	
11	0	0	0	0	508	349	0	549	39	8	
12	0	0	0	0	504	352	0	553	39	8	
13	0	0	0	0	504	355	0	560	38	8	
14	0	0	0	0	511	358	0	555	39	8	
15	0	0	0	0	505	362	0	562	39	8	
0	0	0	0	0	507	366	0	551	39	8	
1	0	0	0	0	505	369	0	543	39	8	
2	0	0	0	0	508	372	0	528	38	8	
3	0	0	0	0	509	375	0	514	39	8	
4	0	0	0	0	508	379	0	501	39	8	
5	0	0	0	0	507	382	0	491	38	8	
6	0	0	0	0	512	385	0	481	39	8	
7	0	0	0	0	504	389	0	474	39	8	
8	0	0	0	0	505	393	0	468	39	8	
9	0	0	0	0	509	397	0	463	39	8	
10	0	0	0	0	510	401	0	463	39	8	
11	0	0	0	0	508	405	0	460	39	8	
12	0	0	0	0	506	410	0	465	39	8	
13	0	0	0	0	508	414	0	464	38	8	
14	0	0	0	0	510	419	0	467	39	8	
15	0	0	0	0	494	423	0	464	39	8	
0	0	0	0	0	508	427	0	462	39	8	
1	0	0	0	0	513	431	0	464	39	8	
2	0	0	0	0	513	435	0	466	39	8	
3	0	0	0	0	506	440	0	467	39	8	
4	0	0	0	0	508	444	0	467	39	8	
5	0	0	0	0	508	448	0	467	38	8	
6	0	0	0	0	508	453	0	467	39	8	
7	0	0	0	0	508	456	0	465	39	8	
8	0	0	0	0	507	462	0	462	39	8	
9	0	0	0	0	507	465	0	463	39	8	
10	0	0	0	0	503	470	0	463	39	8	
11	0	0	0	0	508	474	0	469	39	8	
12	0	0	0	0	512	479	0	468	39	8	
13	0	0	0	0	512	483	0	476	38	8	
14	0	0	0	0	509	487	0	499	39	8	
15	0	0	0	0	504	491	0	508	39	8	
0	0	0	0	0	509	496	0	517	39	8	
1	0	0	0	0	505	500	0	536	39	8	
2	0	0	0	0	507	505	0	539	38	8	
3	0	0	0	0	504	509	0	552	38	8	
4	0	0	0	0	508	513	0	551	38	8	
5	0	0	0	0	503	518	0	550	38	8	
6	0	0	0	0	505	522	0	557	38	8	
7	0	0	0	0	509	525	0	550	39	8	
8	0	0	0	0	512	530	0	556	39	8	
9	0	0	0	0	503	535	0	553	39	8	
10	0	0	0	0	504	540	0	546	38	8	
11	0	0	0	0	512	545	0	534	39	8	
12	0	0	0	0	510	551	0	518	39	8	
13	0	0	0	0	511	555	0	503	38	8	
14	0	0	0	0	510	560	0	492	39	8	
15	0	0	0	0	502	564	0	494	38	8	
0	0	0	0	0	505	570	0	510	38	8	
1	0	0	0	0	510	575	0	510	39	8	
2	0	0	0	0	508	580	0	518	39	8	
3	0	0	0	0	503	584	0	507	38	8	
4	0	0	0	0	507	590	0	499	38	8	
5	0	0	0	0	505	594	0	491	38	8	
6	0	0	0	0	505	599	0	486	39	8	
7	0	0	0	0	506	603	0	482	38	8	
8	0	0	0	0	513	608	0	497	38	8	
9	0	0	0	0	508	611	0	517	39	8	
10	0	0	0	0	513	615	0	524	38	8	
11	0	0	0	0	509	619	0	529	38	8	
12	0	0	0	0	509	623	0	542	38	8	
13	0	0	0	0	506	626	0	542	38	8	
14	0	0	0	0	507	631	0	535	38	8	
15	0	0	0	0	500	633	0	527	39	8	
0	0	0	0	0	508	637	0	511	38	8	
1	0	0	0	0	505	641	0	499	39	8	
2	0	0	0	0	502	644	0	491	39	8	
3	0	0	0	0	501	647	0	485	39	8	
4	0	0	0	0	508	650	0	482	39	8	
5	0	0	0	0	518	653	0	481	38	8	
6	0	0	0	0	510	656	0	478	38	8	
7	0	0	0	0	513	658	0	473	39	8	
8	0	0	0	0	506	660	0	469	39	8	
9	0	0	0	0	508	661	0	470	39	8	
10	0	0	0	0	508	663	0	474	39	8	
11	0	0	0	0	509	664	0	473	39	8	
12	0	0	0	0	507	664	0	476	39	8	
13	0	0	0	0	510	665	0	472	38	8	
14	0	0	0	0	511	664	0	480	39	8	
15	0	0	0	0	502	664	0	469	39	8	
0	0	0	0	0	508	664	0	466	39	8	
1	0	0	0	0	504	662	0	465	39	8	
2	0	0	0	0	504	663	0	469	39	8	
3	0	0	0	0	512	662	0	471	39	8	
4	0	0	0	0	504	662	0	476	39	8	
5	0	0	0	0	510	661	0	478	38	8	
6	0	0	0	0	511	661	0	478	39	8	
7	0	0	0	0	510	661	0	476	39	8	
8	0	0	0	0	504	660	0	474	39	8	
9	0	0	0	0	502	660	0	475	39	8	
10	0	0	0	0	508	659	0	478	39	8	
11	0	0	0	0	502	658	0	502	39	8	
12	0	0	0	0	506	658	0	527	39	8	
13	0	0	0	0	509	656	0	542	38	8	
14	0	0	0	0	509	655	0	559	39	8	
15	0	0	0	0	509	654	0	556	39	8	
0	0	0	0	0	514	653	0	560	38	8	
1	0	0	0	0	505	651	0	566	39	8	
2	0	0	0	0	509	650	0	563	39	8	
3	0	0	0	0	504	649	0	576	38	8	
4	0	0	0	0	500	648	0	572	39	8	
5	0	0	0	0	502	647	0	576	38	8	
6	0	0	0	0	504	646	0	574	39	8	
7	0	0	0	0	505	645	0	565	39	8	
8	0	0	0	0	514	643	0	555	39	8	
9	0	0	0	0	505	642	0	540	39	8	
10	0	0	0	0	504	639	0	526	38	8	
11	0	0	0	0	513	638	0	513	38	8	
12	0	0	0	0	509	635	0	506	39	8	
13	0	0	0	0	502	633	0	502	38	8	
14	0	0	0	0	512	631	0	499	39	8	
15	0	0	0	0	508	628	0	495	39	8	
0	0	0	0	0	509	625	0	492	39	8	
1	0	0	0	0	507	623	0	492	39	8	
2	0	0	0	0	506	620	0	495	39	8	
3	0	0	0	0	504	618	0	498	39	8	
4	0	0	0	0	509	615	0	496	38	8	
5	0	0	0	0	506	614	0	512	38	8	
6	0	0	0	0	510	611	0	495	38	8	
7	0	0	0	0	508	609	0	491	38	8	
8	0	0	0	0	504	607	0	488	38	8	
9	0	0	0	0	506	605	0	487	39	8	
10	0	0	0	0	510	604	0	489	38	8	
11	0	0	0	0	514	602	0	493	38	8	
12	0	0	0	0	510	600	0	497	39	8	
13	0	0	0	0	507	599	0	496	38	8	
14	0	0	0	0	505	597	0	494	38	8	
15	0	0	0	0	509	596	0	489	38	8	
0	0	0	0	0	508	594	0	494	38	8	
1	0	0	0	0	509	593	0	487	38	8	
2	0	0	0	0	504	592	0	489	38	8	
3	0	0	0	0	504	591	0	490	38	8	
4	0	0	0	0	509	590	0	493	38	8	
5	0	0	0	0	502	588	0	494	38	8	
6	0	0	0	0	513	587	0	496	39	8	
7	0	0	0	0	508	586	0	492	39	8	
8	0	0	0	0	509	583	0	493	39	8	
9	0	0	0	0	504	581	0	496	39	8	
10	0	0	0	0	506	578	0	506	39	8	
11	0	0	0	0	504	575	0	555	38	8	
12	0	0	0	0	511	572	0	551	39	8	
13	0	0	0	0	509	569	0	569	38	8	
14	0	0	0	0	508	566	0	577	38	8	
15	0	0	0	0	508	563	0	573	38	8	
0	0	0	0	0	509	560	0	584	39	8	
1	0	0	0	0	508	557	0	581	39	8	
2	0	0	0	0	507	553	0	586	39	8	
3	0	0	0	0	511	551	0	592	39	8	
4	0	0	0	0	504	547	0	589	39	8	
5	0	0	0	0	512	544	0	595	39	8	
6	0	0	0	0	508	540	0	592	39	8	
7	0	0	0	0	509	538	0	581	39	8	
8	0	0	0	0	506	531	0	582	39	8	
9	0	0	0	0	510	524	0	575	39	8	
10	0	0	0	0	510	514	0	566	39	8	
11	0	0	0	0	513	506	0	553	39	8	
12	0	0	0	0	513	494	0	539	39	8	
13	0	0	0	0	505	484	0	527	38	8	
14	0	0	0	0	506	472	0	521	39	8	
15	0	0	0	0	504	463	0	514	39	8	
0	0	0	0	0	508	450	0	507	39	8	
1	0	0	0	0	508	441	0	505	39	8	
2	0	0	0	0	508	429	0	502	39	8	
3	0	0	0	0	501	418	0	503	39	8	
4	0	0	0	0	513	406	0	504	39	8	
5	0	0	0	0	506	397	0	506	38	8	
6	0	0	0	0	500	384	0	502	39	8	
7	0	0	0	0	502	376	0	499	38	8	
8	0	0	0	0	512	371	0	496	38	8	
9	0	0	0	0	503	367	0	499	39	8	
10	0	0	0	0	510	366	0	502	38	8	
11	0	0	0	0	509	366	0	503	38	8	
12	0	0	0	0	511	368	0	506	39	8	
13	0	0	0	0	505	369	0	505	38	8	
14	0	0	0	0	508	372	0	508	38	8	
15	0	0	0	0	506	375	0	502	39	8	
0	0	0	0	0	509	379	0	499	39	8	
1	0	0	0	0	510	383	0	500	39	8	
2	0	0	0	0	512	387	0	503	39	8	
3	0	0	0	0	508	390	0	504	39	8	
4	0	0	0	0	503	395	0	507	38	8	
5	0	0	0	0	507	399	0	507	38	8	
6	0	0	0	0	504	404	0	521	38	8	
7	0	0	0	0	509	407	0	542	38	8	
8	0	0	0	0	505	409	0	549	38	8	
9	0	0	0	0	502	411	0	569	39	8	
10	0	0	0	0	505	412	0	572	38	8	
11	0	0	0	0	504	413	0	576	38	8	
12	0	0	0	0	506	413	0	587	38	8	
13	0	0	0	0	512	413	0	598	38	8	
14	0	0	0	0	516	412	0	588	38	8	
15	0	0	0	0	508	412	0	580	38	8	
0	0	0	0	0	503	411	0	572	38	8	
1	0	0	0	0	511	410	0	581	39	8	
2	0	0	0	0	504	409	0	576	38	8	
3	0	0	0	0	505	408	0	569	38	8	
4	0	0	0	0	510	407	0	554	38	8	
5	0	0	0	0	510	407	0	535	38	8	
6	0	0	0	0	506	405	0	522	38	8	
7	0	0	0	0	505	404	0	510	38	8	
8	0	0	0	0	510	403	0	499	38	8	
9	0	0	0	0	508	402	0	491	39	8	
10	0	0	0	0	505	402	0	487	39	8	
11	0	0	0	0	509	401	0	485	39	8	
12	0	0	0	0	504	400	0	486	39	8	
13	0	0	0	0	515	400	0	488	38	8	
14	0	0	0	0	514	400	0	483	39	8	
15	0	0	0	0	503	400	0	479	39	8	
0	0	0	0	0	509	399	0	475	39	8	
1	0	0	0	0	502	399	0	478	39	8	
2	0	0	0	0	503	398	0	481	39	8	
3	0	0	0	0	506	397	0	485	39	8	
4	0	0	0	0	509	397	0	488	39	8	
5	0	0	0	0	505	397	0	491	38	8	
6	0	0	0	0	504	397	0	490	39	8	
7	0	0	0	0	511	397	0	486	39	8	
8	0	0	0	0	501	397	0	483	39	8	
9	0	0	0	0	501	399	0	485	39	8	
10	0	0	0	0	510	399	0	485	39	8	
11	0	0	0	0	506	400	0	487	39	8	
12	0	0	0	0	513	402	0	489	39	8	
13	0	0	0	0	511	403	0	485	38	8	
14	0	0	0	0	509	404	0	486	38	8	
15	0	0	0	0	505	405	0	487	39	8	
0	0	0	0	0	508	407	0	511	38	8	
1	0	0	0	0	501	408	0	521	39	8	
2	0	0	0	0	506	409	0	539	39	8	
3	0	0	0	0	509	411	0	551	39	8	
4	0	0	0	0	505	412	0	553	39	8	
5	0	0	0	0	508	412	0	566	38	8	
6	0	0	0	0	512	414	0	562	39	8	
7	0	0	0	0	509	415	0	563	39	8	
8	0	0	0	0	510	417	0	568	39	8	
9	0	0	0	0	509	420	0	555	39	8	
10	0	0	0	0	508	422	0	565	39	8	
11	0	0	0	0	503	424	0	560	38	8	
12	0	0	0	0	504	426	0	555	38	8	
13	0	0	0	0	508	429	0	556	38	8	
14	0	0	0	0	508	432	0	565	38	8	
15	0	0	0	0	511	436	0	556	38	8	
0	0	0	0	0	506	440	0	549	38	8	
1	0	0	0	0	508	443	0	536	39	8	
2	0	0	0	0	502	446	0	518	39	8	
3	0	0	0	0	509	450	0	507	39	8	
4	0	0	0	0	512	453	0	496	39	8	
5	0	0	0	0	512	455	0	490	38	9	
6	0	0	0	0	514	460	0	485	39	8	
7	0	0	0	0	506	463	0	482	39	8	
8	0	0	0	0	508	466	0	476	39	8	
9	0	0	0	0	510	469	0	476	39	8	
10	0	0	0	0	504	472	0	475	39	8	
11	0	0	0	0	516	475	0	475	39	8	
12	0	0	0	0	507	479	0	477	39	8	
13	0	0	0	0	500	483	0	478	38	9	
14	0	0	0	0	500	487	0	480	39	8	
15	0	0	0	0	508	490	0	476	39	8	
0	0	0	0	0	504	494	0	476	39	8	
1	0	0	0	0	511	497	0	476	39	8	
2	0	0	0	0	509	500	0	478	39	8	
3	0	0	0	0	501	503	0	482	39	8	
4	0	0	0	0	505	506	0	483	39	8	
5	0	0	0	0	507	509	0	482	38	8	
6	0	0	0	0	504	513	0	483	39	8	
7	0	0	0	0	512	515	0	479	39	8	
8	0	0	0	0	504	518	0	476	38	8	
9	0	0	0	0	502	521	0	478	39	8	
10	0	0	0	0	510	524	0	478	38	8	
11	0	0	0	0	506	527	0	485	39	8	
12	0	0	0	0	506	531	0	483	39	8	
13	0	0	0	0	504	534	0	486	38	8	
14	0	0	0	0	510	537	0	487	39	9	
15	0	0	0	0	510	540	0	507	39	8	
0	0	0	0	0	512	543	0	525	38	8	
1	0	0	0	0	508	545	0	536	39	8	
2	0	0	0	0	510	548	0	559	39	8	
3	0	0	0	0	506	551	0	564	39	8	
4	0	0	0	0	507	554	0	574	39	8	
5	0	0	0	0	508	557	0	577	38	8	
6	0	0	0	0	512	560	0	573	38	9	
7	0	0	0	0	512	562	0	579	38	8	
8	0	0	0	0	511	565	0	572	38	8	
9	0	0	0	0	510	566	0	574	39	8	
10	0	0	0	0	507	568	0	575	38	8	
11	0	0	0	0	508	570	0	566	38	8	
12	0	0	0	0	501	572	0	558	38	8	
13	0	0	0	0	506	573	0	564	38	8	
14	0	0	0	0	504	575	0	560	38	8	
15	0	0	0	0	507	577	0	551	38	8	
0	0	0	0	0	512	578	0	542	38	8	
1	0	0	0	0	508	579	0	528	39	8	
2	0	0	0	0	506	581	0	516	38	8	
3	0	0	0	0	508	582	0	505	38	8	
4	0	0	0	0	513	584	0	499	38	8	
5	0	0	0	0	507	585	0	496	38	8	
6	0	0	0	0	496	587	0	492	38	8	
7	0	0	0	0	516	588	0	487	38	9	
8	0	0	0	0	508	588	0	481	38	8	
9	0	0	0	0	504	588	0	483	39	8	
10	0	0	0	0	506	586	0	481	39	8	
11	0	0	0	0	507	584	0	483	39	8	
12	0	0	0	0	509	583	0	483	38	8	
13	0	0	0	0	504	580	0	493	38	8	
14	0	0	0	0	509	577	0	483	38	8	
15	0	0	0	0	504	574	0	479	39	8	
0	0	0	0	0	509	572	0	476	38	8	
1	0	0	0	0	508	569	0	476	39	8	
2	0	0	0	0	510	565	0	475	39	8	
3	0	0	0	0	503	563	0	477	39	8	
4	0	0	0	0	511	559	0	478	39	8	
5	0	0	0	0	516	556	0	481	38	8	
6	0	0	0	0	500	553	0	482	39	8	
7	0	0	0	0	508	550	0	480	39	8	
8	0	0	0	0	499	549	0	477	39	8	
9	0	0	0	0	512	549	0	476	39	8	
10	0	0	0	0	506	550	0	477	39	8	
11	0	0	0	0	504	551	0	480	39	8	
12	0	0	0	0	509	553	0	500	39	8	
13	0	0	0	0	511	556	0	522	38	8	
14	0	0	0	0	506	558	0	532	39	8	
15	0	0	0	0	510	560	0	549	39	8	
0	0	0	0	0	510	563	0	548	39	9	
1	0	0	0	0	507	566	0	553	39	8	
2	0	0	0	0	506	569	0	566	39	8	
3	0	0	0	0	506	571	0	561	39	8	
4	0	0	0	0	504	575	0	572	39	8	
5	0	0	0	0	507	577	0	564	38	8	
6	0	0	0	0	512	581	0	565	39	8	
7	0	0	0	0	506	583	0	564	39	8	
8	0	0	0	0	508	583	0	555	39	9	
9	0	0	0	0	512	584	0	546	39	8	
10	0	0	0	0	505	583	0	532	39	8	
11	0	0	0	0	509	582	0	518	39	8	
12	0	0	0	0	508	580	0	508	39	8	
13	0	0	0	0	503	577	0	504	38	8	
14	0	0	0	0	511	575	0	501	38	8	
15	0	0	0	0	508	573	0	500	38	8	
0	0	0	0	0	505	570	0	494	38	9	
1	0	0	0	0	510	568	0	492	39	8	
2	0	0	0	0	508	565	0	491	38	8	
3	0	0	0	0	511	563	0	491	38	8	
4	0	0	0	0	505	560	0	489	38	8	
5	0	0	0	0	503	558	0	487	38	8	
6	0	0	0	0	504	556	0	486	38	8	
7	0	0	0	0	504	553	0	481	38	8	
8	0	0	0	0	498	551	0	481	38	9	
9	0	0	0	0	513	550	0	478	39	9	
10	0	0	0	0	501	549	0	483	38	8	
11	0	0	0	0	508	548	0	483	38	8	
12	0	0	0	0	508	548	0	485	38	8	
13	0	0	0	0	511	547	0	487	38	8	
14	0	0	0	0	503	547	0	489	38	8	
15	0	0	0	0	510	546	0	487	38	8	
0	0	0	0	0	508	546	0	486	38	9	
1	0	0	0	0	503	545	0	487	39	9	
2	0	0	0	0	506	546	0	489	38	8	
3	0	0	0	0	507	546	0	490	38	8	
4	0	0	0	0	515	545	0	492	38	8	
5	0	0	0	0	512	545	0	492	38	8	
6	0	0	0	0	507	545	0	491	38	8	
7	0	0	0	0	503	545	0	493	38	8	
8	0	0	0	0	510	543	0	512	38	9	
9	0	0	0	0	508	542	0	545	39	9	
10	0	0	0	0	518	540	0	542	38	9	
11	0	0	0	0	507	538	0	560	39	8	
12	0	0	0	0	500	535	0	560	38	8	
13	0	0	0	0	504	533	0	572	38	8	
14	0	0	0	0	505	530	0	572	39	8	
15	0	0	0	0	501	528	0	569	39	8	
0	0	0	0	0	506	525	0	572	39	9	
1	0	0	0	0	516	522	0	563	39	9	
2	0	0	0	0	511	519	0	570	39	9	
3	0	0	0	0	510	517	0	568	39	8	
4	0	0	0	0	509	514	0	563	39	8	
5	0	0	0	0	507	512	0	548	38	8	
6	0	0	0	0	508	509	0	538	39	8	
7	0	0	0	0	510	507	0	513	39	8	
8	0	0	0	0	511	504	0	521	39	9	
9	0	0	0	0	506	503	0	537	39	9	
10	0	0	0	0	507	500	0	543	39	9	
11	0	0	0	0	498	498	0	544	39	8	
12	0	0	0	0	507	496	0	559	39	8	
13	0	0	0	0	506	494	0	558	38	8	
14	0	0	0	0	513	493	0	551	39	8	
15	0	0	0	0	512	492	0	542	39	8	
0	0	0	0	0	512	490	0	526	39	8	
1	0	0	0	0	504	489	0	514	39	8	
2	0	0	0	0	511	487	0	502	39	8	
3	0	0	0	0	511	487	0	494	39	8	
4	0	0	0	0	508	486	0	489	39	8	
5	0	0	0	0	508	484	0	487	38	8	
6	0	0	0	0	507	483	0	483	39	8	
7	0	0	0	0	506	481	0	477	39	8	
8	0	0	0	0	505	481	0	473	39	8	
9	0	0	0	0	509	480	0	472	39	8	
10	0	0	0	0	508	479	0	479	39	8	
11	0	0	0	0	509	479	0	472	39	9	
12	0	0	0	0	506	478	0	473	39	8	
13	0	0	0	0	509	478	0	474	38	8	
14	0	0	0	0	509	476	0	475	39	8	
15	0	0	0	0	502	476	0	472	39	8	
0	0	0	0	0	504	476	0	468	39	8	
1	0	0	0	0	502	476	0	469	39	8	
2	0	0	0	0	510	475	0	469	39	8	
3	0	0	0	0	507	475	0	482	39	8	
4	0	0	0	0	507	475	0	473	39	8	
5	0	0	0	0	510	474	0	475	38	8	
6	0	0	0	0	507	474	0	471	38	8	
7	0	0	0	0	510	474	0	468	38	8	
8	0	0	0	0	512	473	0	466	38	8	
9	0	0	0	0	505	473	0	468	39	8	
10	0	0	0	0	509	472	0	469	38	8	
11	0	0	0	0	508	471	0	472	38	8	
12	0	0	0	0	509	470	0	476	38	8	
13	0	0	0	0	513	469	0	478	38	8	
14	0	0	0	0	510	469	0	479	39	8	
15	0	0	0	0	508	468	0	475	38	8	
0	0	0	0	0	503	467	0	472	38	8	
1	0	0	0	0	506	467	0	474	39	8	
2	0	0	0	0	501	465	0	477	38	8	
3	0	0	0	0	509	465	0	478	39	8	
4	0	0	0	0	514	464	0	481	38	8	
5	0	0	0	0	504	463	0	480	38	8	
6	0	0	0	0	507	462	0	479	38	8	
7	0	0	0	0	504	462	0	475	39	8	
8	0	0	0	0	507	461	0	473	39	8	
9	0	0	0	0	504	461	0	473	39	8	
10	0	0	0	0	507	461	0	476	38	8	
11	0	0	0	0	508	462	0	479	38	8	
12	0	0	0	0	506	463	0	481	38	8	
13	0	0	0	0	504	464	0	483	38	8	
14	0	0	0	0	507	465	0	482	38	8	
15	0	0	0	0	505	466	0	479	39	8	
0	0	0	0	0	509	467	0	477	38	8	
1	0	0	0	0	505	468	0	479	39	8	
2	0	0	0	0	506	469	0	478	39	8	
3	0	0	0	0	507	470	0	478	39	8	
4	0	0	0	0	504	471	0	478	39	8	
5	0	0	0	0	511	472	0	491	38	8	
6	0	0	0	0	518	474	0	512	39	8	
7	0	0	0	0	510	475	0	518	38	8	
8	0	0	0	0	501	470	0	538	39	8	
9	0	0	0	0	508	467	0	541	39	8	
10	0	0	0	0	508	461	0	547	38	8	
11	0	0	0	0	503	455	0	556	39	8	
12	0	0	0	0	509	447	0	552	39	8	
13	0	0	0	0	507	440	0	559	38	8	
14	0	0	0	0	515	431	0	556	39	8	
15	0	0	0	0	513	423	0	551	39	8	
0	0	0	0	0	506	414	0	554	39	8	
1	0	0	0	0	504	407	0	542	39	8	
2	0	0	0	0	504	397	0	547	39	8	
3	0	0	0	0	506	390	0	549	39	8	
4	0	0	0	0	507	381	0	546	39	8	
5	0	0	0	0	503	374	0	553	38	8	
6	0	0	0	0	509	365	0	541	39	8	
7	0	0	0	0	509	358	0	546	39	8	
8	0	0	0	0	511	359	0	540	39	8	
9	0	0	0	0	508	361	0	537	39	8	
10	0	0	0	0	504	368	0	545	39	8	
11	0	0	0	0	513	376	0	540	39	8	
12	0	0	0	0	505	387	0	534	39	8	
13	0	0	0	0	514	397	0	538	38	8	
14	0	0	0	0	512	410	0	540	39	8	
15	0	0	0	0	510	421	0	529	39	8	
0	0	0	0	0	501	437	0	524	38	8	
1	0	0	0	0	499	449	0	509	39	8	
2	0	0	0	0	505	464	0	500	39	8	
3	0	0	0	0	500	476	0	488	38	8	
4	0	0	0	0	505	491	0	482	38	8	
5	0	0	0	0	510	504	0	478	38	9	
6	0	0	0	0	512	519	0	473	38	9	
7	0	0	0	0	510	531	0	467	38	8	
8	0	0	0	0	509	543	0	461	38	8	
9	0	0	0	0	508	551	0	460	39	8	
10	0	0	0	0	513	558	0	461	39	8	
11	0	0	0	0	506	564	0	464	39	8	
12	0	0	0	0	504	569	0	464	39	8	
13	0	0	0	0	504	574	0	471	38	9	
14	0	0	0	0	511	576	0	463	39	9	
15	0	0	0	0	508	580	0	462	39	8	
0	0	0	0	0	504	583	0	459	39	8	
1	0	0	0	0	502	586	0	460	39	8	
2	0	0	0	0	509	589	0	464	39	8	
3	0	0	0	0	510	592	0	467	39	8	
4	0	0	0	0	513	595	0	471	39	8	
5	0	0	0	0	497	597	0	472	38	9	
6	0	0	0	0	508	600	0	473	39	9	
7	0	0	0	0	502	601	0	467	39	9	
8	0	0	0	0	505	602	0	465	39	8	
9	0	0	0	0	509	602	0	467	39	8	
10	0	0	0	0	507	601	0	471	39	8	
11	0	0	0	0	513	601	0	472	39	8	
12	0	0	0	0	511	600	0	490	39	8	
13	0	0	0	0	510	598	0	518	38	9	
14	0	0	0	0	510	597	0	525	39	9	
15	0	0	0	0	503	594	0	544	39	9	
0	0	0	0	0	507	592	0	545	38	8	
1	0	0	0	0	509	591	0	551	39	8	
2	0	0	0	0	505	590	0	560	38	8	
3	0	0	0	0	509	589	0	560	38	8	
4	0	0	0	0	505	587	0	563	38	8	
5	0	0	0	0	505	585	0	562	38	9	
6	0	0	0	0	511	583	0	559	38	9	
7	0	0	0	0	508	582	0	562	38	9	
8	0	0	0	0	510	580	0	548	38	8	
9	0	0	0	0	509	579	0	539	39	8	
10	0	0	0	0	509	578	0	522	39	8	
11	0	0	0	0	502	577	0	508	38	8	
12	0	0	0	0	508	575	0	498	38	8	
13	0	0	0	0	510	575	0	490	38	9	
14	0	0	0	0	507	574	0	483	38	9	
15	0	0	0	0	510	573	0	481	38	9	
0	0	0	0	0	508	572	0	479	38	9	
1	0	0	0	0	504	570	0	478	39	8	
2	0	0	0	0	515	569	0	477	38	8	
3	0	0	0	0	508	568	0	477	38	8	
4	0	0	0	0	508	567	0	477	39	8	
5	0	0	0	0	502	566	0	475	38	9	
6	0	0	0	0	507	565	0	481	38	9	
7	0	0	0	0	508	564	0	472	38	9	
8	0	0	0	0	504	563	0	473	38	9	
9	0	0	0	0	512	562	0	468	39	8	
10	0	0	0	0	511	561	0	471	38	8	
11	0	0	0	0	508	560	0	475	38	8	
12	0	0	0	0	508	558	0	479	38	8	
13	0	0	0	0	508	557	0	480	38	8	
14	0	0	0	0	504	556	0	478	38	9	
15	0	0	0	0	508	556	0	473	38	9	
0	0	0	0	0	507	553	0	471	38	9	
1	0	0	0	0	509	553	0	474	39	8	
2	0	0	0	0	506	552	0	473	38	8	
3	0	0	0	0	507	551	0	490	38	8	
4	0	0	0	0	506	550	0	479	39	8	
5	0	0	0	0	511	548	0	488	38	8	
6	0	0	0	0	509	547	0	513	39	9	
7	0	0	0	0	512	546	0	522	39	9	
8	0	0	0	0	508	543	0	537	39	9	
9	0	0	0	0	510	540	0	550	39	9	
10	0	0	0	0	507	537	0	554	39	8	
11	0	0	0	0	509	534	0	568	39	8	
12	0	0	0	0	506	530	0	566	39	8	
13	0	0	0	0	508	527	0	569	38	8	
14	0	0	0	0	510	523	0	572	39	9	
15	0	0	0	0	514	520	0	564	39	9	
0	0	0	0	0	508	517	0	573	39	9	
1	0	0	0	0	510	514	0	563	39	9	
2	0	0	0	0	505	510	0	557	39	8	
3	0	0	0	0	507	507	0	542	39	8	
4	0	0	0	0	500	504	0	529	39	8	
5	0	0	0	0	512	500	0	518	38	8	
6	0	0	0	0	502	496	0	506	39	8	
7	0	0	0	0	503	493	0	500	39	9	
8	0	0	0	0	505	491	0	493	39	9	
9	0	0	0	0	513	489	0	496	39	9	
10	0	0	0	0	508	486	0	488	39	9	
11	0	0	0	0	509	485	0	487	39	8	
12	0	0	0	0	502	483	0	484	39	8	
13	0	0	0	0	507	482	0	483	38	8	
14	0	0	0	0	502	481	0	480	39	8	
15	0	0	0	0	509	480	0	478	39	9	
0	0	0	0	0	507	478	0	474	39	9	
1	0	0	0	0	510	477	0	473	39	9	
2	0	0	0	0	511	476	0	476	39	9	
3	0	0	0	0	499	475	0	480	39	8	
4	0	0	0	0	505	473	0	486	39	8	
5	0	0	0	0	512	472	0	486	38	8	
6	0	0	0	0	511	472	0	485	39	8	
7	0	0	0	0	506	471	0	482	38	9	
8	0	0	0	0	505	469	0	481	38	9	
9	0	0	0	0	508	467	0	483	39	9	
10	0	0	0	0	505	464	0	488	38	9	
11	0	0	0	0	514	462	0	487	38	8	
12	0	0	0	0	505	459	0	489	38	8	
13	0	0	0	0	513	456	0	489	38	8	
14	0	0	0	0	504	453	0	494	38	8	
15	0	0	0	0	510	450	0	515	38	8	
0	0	0	0	0	508	447	0	527	38	9	
1	0	0	0	0	506	445	0	541	39	9	
2	0	0	0	0	497	441	0	560	38	9	
3	0	0	0	0	507	439	0	570	38	9	
4	0	0	0	0	505	435	0	573	38	8	
5	0	0	0	0	506	432	0	572	38	8	
6	0	0	0	0	513	429	0	570	38	8	
7	0	0	0	0	504	427	0	577	38	8	
8	0	0	0	0	505	424	0	568	38	9	
9	0	0	0	0	507	422	0	574	39	9	
10	0	0	0	0	508	422	0	571	38	9	
11	0	0	0	0	511	421	0	561	38	9	
12	0	0	0	0	510	419	0	559	38	8	
13	0	0	0	0	514	419	0	536	38	8	
14	0	0	0	0	505	419	0	523	38	8	
15	0	0	0	0	505	418	0	529	38	8	
0	0	0	0	0	508	417	0	540	38	9	
1	0	0	0	0	508	417	0	542	39	9	
2	0	0	0	0	504	416	0	540	39	9	
3	0	0	0	0	509	416	0	531	38	9	
4	0	0	0	0	511	416	0	521	39	8	
5	0	0	0	0	502	415	0	512	38	8	
6	0	0	0	0	504	415	0	502	39	8	
7	0	0	0	0	505	415	0	499	39	8	
8	0	0	0	0	509	413	0	490	39	8	
9	0	0	0	0	509	413	0	487	39	9	
10	0	0	0	0	504	413	0	481	39	9	
11	0	0	0	0	509	413	0	481	39	9	
12	0	0	0	0	507	412	0	476	39	9	
13	0	0	0	0	508	411	0	475	38	8	
14	0	0	0	0	508	411	0	472	39	8	
15	0	0	0	0	512	411	0	467	39	8	
0	0	0	0	0	506	410	0	462	39	8	
1	0	0	0	0	510	410	0	465	39	9	
2	0	0	0	0	512	409	0	468	39	9	
3	0	0	0	0	502	408	0	470	39	9	
4	0	0	0	0	506	407	0	473	39	9	
5	0	0	0	0	507	406	0	474	38	8	
6	0	0	0	0	508	405	0	479	39	8	
7	0	0	0	0	509	405	0	473	39	8	
8	0	0	0	0	507	405	0	472	39	8	
9	0	0	0	0	509	406	0	472	39	9	
10	0	0	0	0	508	406	0	475	39	9	
11	0	0	0	0	506	407	0	478	39	9	
12	0	0	0	0	502	408	0	480	39	9	
13	0	0	0	0	507	408	0	479	38	8	
14	0	0	0	0	509	410	0	493	39	8	
15	0	0	0	0	510	411	0	512	39	8	
0	0	0	0	0	508	412	0	518	39	8	
1	0	0	0	0	502	413	0	536	39	9	
2	0	0	0	0	511	415	0	543	39	9	
3	0	0	0	0	504	415	0	548	39	9	
4	0	0	0	0	505	417	0	560	39	9	
5	0	0	0	0	512	419	0	560	38	9	
6	0	0	0	0	508	419	0	566	39	8	
7	0	0	0	0	501	421	0	561	39	8	
8	0	0	0	0	507	423	0	554	39	8	
9	0	0	0	0	507	426	0	563	39	8	
10	0	0	0	0	506	428	0	558	39	9	
11	0	0	0	0	506	430	0	553	39	9	
12	0	0	0	0	505	433	0	538	39	9	
13	0	0	0	0	513	435	0	522	38	9	
14	0	0	0	0	511	438	0	508	39	8	
15	0	0	0	0	504	440	0	500	39	8	
0	0	0	0	0	504	443	0	515	38	8	
1	0	0	0	0	515	446	0	525	39	8	
2	0	0	0	0	511	448	0	530	39	9	
3	0	0	0	0	504	451	0	527	38	9	
4	0	0	0	0	508	454	0	520	39	9	
5	0	0	0	0	502	456	0	508	38	9	
6	0	0	0	0	510	459	0	505	38	8	
7	0	0	0	0	506	462	0	488	38	8	
8	0	0	0	0	509	465	0	480	38	8	
9	0	0	0	0	508	467	0	477	39	8	
10	0	0	0	0	511	471	0	476	38	9	
11	0	0	0	0	510	474	0	475	38	9	
12	0	0	0	0	500	478	0	475	38	9	
13	0	0	0	0	512	481	0	474	38	9	
14	0	0	0	0	509	485	0	475	39	9	
15	0	0	0	0	508	488	0	470	38	8	
0	0	0	0	0	511	492	0	469	38	8	
1	0	0	0	0	497	495	0	469	39	8	
2	0	0	0	0	516	499	0	472	39	8	
3	0	0	0	0	503	501	0	475	39	9	
4	0	0	0	0	505	505	0	475	39	9	
5	0	0	0	0	506	508	0	476	38	9	
6	0	0	0	0	505	511	0	474	39	9	
7	0	0	0	0	508	514	0	472	39	8	
8	0	0	0	0	512	518	0	467	39	8	
9	0	0	0	0	503	521	0	467	39	8	
10	0	0	0	0	515	524	0	467	39	8	
11	0	0	0	0	513	527	0	471	39	9	
12	0	0	0	0	508	531	0	472	39	9	
13	0	0	0	0	508	534	0	475	38	9	
14	0	0	0	0	507	537	0	474	39	9	
15	0	0	0	0	501	540	0	492	39	9	
0	0	0	0	0	510	543	0	510	39	8	
1	0	0	0	0	511	545	0	516	39	8	
2	0	0	0	0	502	549	0	540	39	8	
3	0	0	0	0	512	551	0	546	39	9	
4	0	0	0	0	509	555	0	556	39	9	
5	0	0	0	0	514	557	0	560	38	9	
6	0	0	0	0	507	560	0	555	39	9	
7	0	0	0	0	507	563	0	564	39	9	
8	0	0	0	0	504	565	0	556	39	8	
9	0	0	0	0	504	567	0	560	39	8	
10	0	0	0	0	507	569	0	560	39	8	
11	0	0	0	0	502	570	0	569	39	8	
12	0	0	0	0	504	572	0	545	39	9	
13	0	0	0	0	512	573	0	552	38	9	
14	0	0	0	0	511	575	0	547	39	9	
15	0	0	0	0	512	575	0	540	39	9	
0	0	0	0	0	505	577	0	529	39	8	
1	0	0	0	0	508	578	0	516	39	8	
2	0	0	0	0	505	579	0	504	39	8	
3	0	0	0	0	501	580	0	494	39	8	
4	0	0	0	0	507	581	0	487	39	9	
5	0	0	0	0	507	582	0	482	38	9	
6	0	0	0	0	512	584	0	481	39	9	
7	0	0	0	0	510	585	0	472	39	9	
8	0	0	0	0	509	586	0	468	39	8	
9	0	0	0	0	504	587	0	465	39	8	
10	0	0	0	0	505	587	0	465	39	8	
11	0	0	0	0	510	587	0	468	39	8	
12	0	0	0	0	500	588	0	469	39	9	
13	0	0	0	0	512	588	0	469	38	9	
14	0	0	0	0	503	589	0	470	39	9	
15	0	0	0	0	506	590	0	467	39	9	
0	0	0	0	0	498	590	0	466	39	9	
1	0	0	0	0	504	590	0	468	39	8	
2	0	0	0	0	505	590	0	468	39	8	
3	0	0	0	0	513	591	0	478	38	8	
4	0	0	0	0	507	591	0	474	39	8	
5	0	0	0	0	510	591	0	478	38	9	
6	0	0	0	0	504	592	0	481	38	9	
7	0	0	0	0	513	592	0	479	39	9	
8	0	0	0	0	511	592	0	476	39	9	
9	0	0	0	0	511	592	0	476	39	8	
10	0	0	0	0	509	592	0	478	39	8	
11	0	0	0	0	509	591	0	480	39	8	
12	0	0	0	0	505	591	0	481	39	8	
13	0	0	0	0	508	591	0	483	38	9	
14	0	0	0	0	504	591	0	483	39	9	
15	0	0	0	0	510	591	0	480	39	9	
0	0	0	0	0	507	591	0	478	39	9	
1	0	0	0	0	508	591	0	474	39	8	
2	0	0	0	0	510	591	0	475	39	8	
3	0	0	0	0	515	591	0	476	39	8	
4	0	0	0	0	502	591	0	479	39	8	
5	0	0	0	0	503	591	0	481	38	8	
6	0	0	0	0	516	591	0	478	38	9	
7	0	0	0	0	507	591	0	475	39	9	
8	0	0	0	0	505	591	0	472	38	9	
9	0	0	0	0	504	591	0	473	39	9	
10	0	0	0	0	508	590	0	475	38	8	
11	0	0	0	0	505	590	0	477	38	8	
12	0	0	0	0	509	590	0	481	38	8	
13	0	0	0	0	508	590	0	497	38	8	
14	0	0	0	0	506	590	0	516	38	9	
15	0	0	0	0	508	589	0	526	38	9	
0	0	0	0	0	508	588	0	541	38	9	
1	0	0	0	0	508	588	0	552	39	9	
2	0	0	0	0	508	588	0	552	38	8	
3	0	0	0	0	506	587	0	568	38	8	
4	0	0	0	0	505	587	0	568	39	8	
5	0	0	0	0	510	587	0	570	38	8	
6	0	0	0	0	505	587	0	569	38	9	
7	0	0	0	0	508	586	0	557	38	9	
8	0	0	0	0	507	585	0	563	38	9	
9	0	0	0	0	505	584	0	557	39	9	
10	0	0	0	0	506	582	0	561	38	8	
11	0	0	0	0	511	580	0	567	38	8	
12	0	0	0	0	508	578	0	563	38	8	
13	0	0	0	0	508	576	0	572	38	8	
14	0	0	0	0	510	575	0	561	39	8	
15	0	0	0	0	512	573	0	560	39	9	
0	0	0	0	0	502	571	0	559	38	9	
1	0	0	0	0	511	568	0	552	39	9	
2	0	0	0	0	508	566	0	544	38	9	
3	0	0	0	0	513	563	0	530	39	8	
4	0	0	0	0	507	560	0	515	39	8	
5	0	0	0	0	507	559	0	507	38	8	
6	0	0	0	0	508	556	0	499	39	8	
7	0	0	0	0	511	554	0	495	39	9	
8	0	0	0	0	509	551	0	486	39	9	
9	0	0	0	0	507	549	0	483	39	9	
10	0	0	0	0	508	546	0	484	39	9	
11	0	0	0	0	510	543	0	486	39	8	
12	0	0	0	0	506	540	0	487	39	8	
13	0	0	0	0	505	538	0	487	38	8	
14	0	0	0	0	509	535	0	485	39	8	
15	0	0	0	0	506	533	0	483	39	9	
0	0	0	0	0	503	530	0	478	39	9	
1	0	0	0	0	509	527	0	481	39	9	
2	0	0	0	0	509	524	0	484	39	9	
3	0	0	0	0	511	521	0	487	39	8	
4	0	0	0	0	510	518	0	491	39	8	
5	0	0	0	0	503	515	0	493	38	8	
6	0	0	0	0	499	512	0	493	39	8	
7	0	0	0	0	508	510	0	491	39	8	
8	0	0	0	0	509	507	0	491	39	9	
9	0	0	0	0	514	504	0	490	39	9	
10	0	0	0	0	504	501	0	500	39	9	
11	0	0	0	0	508	499	0	493	39	9	
12	0	0	0	0	513	496	0	496	39	8	
13	0	0	0	0	505	493	0	494	38	8	
14	0	0	0	0	510	491	0	508	39	8	
15	0	0	0	0	510	488	0	529	39	8	
0	0	0	0	0	507	485	0	537	39	9	
1	0	0	0	0	511	482	0	557	39	9	
2	0	0	0	0	511	479	0	566	39	9	
3	0	0	0	0	508	476	0	572	39	9	
4	0	0	0	0	505	473	0	580	39	8	
5	0	0	0	0	511	472	0	577	38	8	
6	0	0	0	0	508	470	0	581	38	8	
7	0	0	0	0	510	467	0	579	39	8	
8	0	0	0	0	504	465	0	573	38	9	
9	0	0	0	0	511	463	0	577	39	9	
10	0	0	0	0	505	462	0	569	39	9	
11	0	0	0	0	505	461	0	575	38	9	
12	0	0	0	0	507	460	0	576	38	8	
13	0	0	0	0	506	460	0	576	38	8	
14	0	0	0	0	504	459	0	580	38	8	
15	0	0	0	0	508	459	0	568	38	8	
0	0	0	0	0	507	458	0	560	38	9	
1	0	0	0	0	510	457	0	542	39	9	
2	0	0	0	0	509	456	0	527	38	9	
3	0	0	0	0	512	455	0	515	38	9	
4	0	0	0	0	509	455	0	507	39	9	
5	0	0	0	0	502	455	0	498	38	8	
6	0	0	0	0	503	454	0	494	39	8	
7	0	0	0	0	505	454	0	491	38	8	
8	0	0	0	0	516	453	0	491	38	8	
9	0	0	0	0	512	452	0	493	39	9	
10	0	0	0	0	506	451	0	490	38	9	
11	0	0	0	0	499	450	0	496	39	9	
12	0	0	0	0	504	448	0	488	38	9	
13	0	0	0	0	510	446	0	487	38	8	
14	0	0	0	0	504	444	0	487	39	8	
15	0	0	0	0	508	443	0	485	38	8	
0	0	0	0	0	508	440	0	481	38	8	
1	0	0	0	0	512	439	0	484	39	9	
2	0	0	0	0	509	436	0	484	38	9	
3	0	0	0	0	499	435	0	487	38	9	
4	0	0	0	0	508	433	0	491	38	9	
5	0	0	0	0	507	430	0	488	38	8	
6	0	0	0	0	512	428	0	488	39	8	
7	0	0	0	0	506	427	0	483	39	8	
8	0	0	0	0	502	425	0	480	39	8	
9	0	0	0	0	509	424	0	480	39	9	
10	0	0	0	0	505	422	0	481	39	9	
11	0	0	0	0	510	422	0	483	39	9	
12	0	0	0	0	503	421	0	493	39	9	
13	0	0	0	0	504	420	0	519	38	9	
14	0	0	0	0	513	420	0	526	39	8	
15	0	0	0	0	510	419	0	543	39	8	
0	0	0	0	0	503	419	0	552	39	8	
1	0	0	0	0	504	418	0	571	39	8	
2	0	0	0	0	505	417	0	568	39	9	
3	0	0	0	0	512	417	0	564	39	9	
4	0	0	0	0	505	416	0	568	39	9	
5	0	0	0	0	509	416	0	577	38	9	
6	0	0	0	0	505	416	0	571	39	8	
7	0	0	0	0	505	416	0	578	39	8	
8	0	0	0	0	507	422	0	568	39	8	
9	0	0	0	0	504	428	0	560	39	8	
10	0	0	0	0	506	438	0	547	39	9	
11	0	0	0	0	503	447	0	530	39	9	
12	0	0	0	0	508	459	0	518	39	9	
13	0	0	0	0	500	470	0	508	38	9	
14	0	0	0	0	512	483	0	499	39	8	
15	0	0	0	0	512	494	0	491	39	8	
0	0	0	0	0	504	507	0	485	38	8	
1	0	0	0	0	511	519	0	482	39	8	
2	0	0	0	0	505	533	0	481	38	9	
3	0	0	0	0	513	545	0	482	39	9	
4	0	0	0	0	519	559	0	481	38	9	
5	0	0	0	0	502	571	0	481	38	9	
6	0	0	0	0	499	585	0	480	38	9	
7	0	0	0	0	502	595	0	478	39	8	
8	0	0	0	0	504	597	0	475	39	8	
9	0	0	0	0	508	597	0	478	39	8	
10	0	0	0	0	514	590	0	482	38	8	
11	0	0	0	0	505	583	0	484	39	9	
12	0	0	0	0	509	572	0	488	39	9	
13	0	0	0	0	504	562	0	487	38	9	
14	0	0	0	0	503	548	0	486	39	9	
15	0	0	0	0	511	536	0	483	39	8	
0	0	0	0	0	506	520	0	481	39	8	
1	0	0	0	0	506	508	0	481	39	8	
2	0	0	0	0	499	491	0	481	39	8	
3	0	0	0	0	512	479	0	483	39	9	
4	0	0	0	0	504	463	0	480	39	9	
5	0	0	0	0	511	451	0	485	38	9	
6	0	0	0	0	511	433	0	507	38	9	
7	0	0	0	0	511	421	0	516	39	9	
8	0	0	0	0	510	412	0	524	39	8	
9	0	0	0	0	508	407	0	543	39	8	
10	0	0	0	0	496	403	0	545	39	8	
11	0	0	0	0	509	401	0	556	38	9	
12	0	0	0	0	510	401	0	555	39	9	
13	0	0	0	0	506	401	0	551	38	9	
14	0	0	0	0	507	402	0	559	39	9	
15	0	0	0	0	508	404	0	550	39	9	
0	0	0	0	0	507	406	0	556	38	8	
1	0	0	0	0	505	408	0	553	39	8	
2	0	0	0	0	505	410	0	547	39	8	
3	0	0	0	0	507	413	0	536	39	8	
4	0	0	0	0	519	415	0	522	38	9	
5	0	0	0	0	509	418	0	510	38	9	
6	0	0	0	0	504	421	0	498	38	9	
7	0	0	0	0	505	423	0	490	39	9	
8	0	0	0	0	513	427	0	478	38	8	
9	0	0	0	0	502	430	0	476	39	8	
10	0	0	0	0	512	432	0	473	39	8	
11	0	0	0	0	507	435	0	472	39	8	
12	0	0	0	0	508	439	0	472	39	9	
13	0	0	0	0	508	442	0	472	38	9	
14	0	0	0	0	504	446	0	473	39	9	
15	0	0	0	0	509	449	0	471	38	9	
0	0	0	0	0	511	453	0	470	38	9	
1	0	0	0	0	512	456	0	472	39	8	
2	0	0	0	0	505	459	0	478	39	8	
3	0	0	0	0	506	462	0	479	39	8	
4	0	0	0	0	499	466	0	482	39	9	
5	0	0	0	0	509	468	0	482	38	9	
6	0	0	0	0	509	472	0	481	39	9	
7	0	0	0	0	505	474	0	478	39	9	
8	0	0	0	0	512	478	0	476	38	9	
9	0	0	0	0	509	480	0	477	39	8	
10	0	0	0	0	511	484	0	477	39	8	
11	0	0	0	0	510	487	0	478	39	8	
12	0	0	0	0	502	489	0	481	38	8	
13	0	0	0	0	508	493	0	486	38	9	
14	0	0	0	0	506	497	0	484	39	9	
15	0	0	0	0	509	500	0	504	39	9	
0	0	0	0	0	509	504	0	518	39	9	
1	0	0	0	0	505	507	0	527	39	8	
2	0	0	0	0	507	511	0	549	39	8	
3	0	0	0	0	504	514	0	557	39	8	
4	0	0	0	0	510	517	0	563	39	8	
5	0	0	0	0	504	520	0	568	38	9	
6	0	0	0	0	510	523	0	560	39	9	
7	0	0	0	0	504	525	0	569	39	9	
8	0	0	0	0	507	528	0	563	39	9	
9	0	0	0	0	504	531	0	564	39	8	
10	0	0	0	0	509	533	0	564	39	8	
11	0	0	0	0	511	536	0	558	39	8	
12	0	0	0	0	513	539	0	549	39	8	
13	0	0	0	0	508	541	0	557	38	9	
14	0	0	0	0	508	543	0	553	39	9	
15	0	0	0	0	510	544	0	544	39	9	
0	0	0	0	0	505	546	0	536	39	9	
1	0	0	0	0	501	548	0	520	39	9	
2	0	0	0	0	504	550	0	507	39	8	
3	0	0	0	0	512	552	0	495	39	8	
4	0	0	0	0	515	554	0	487	39	8	
5	0	0	0	0	512	556	0	482	38	8	
6	0	0	0	0	504	558	0	481	39	9	
7	0	0	0	0	502	559	0	476	39	9	
8	0	0	0	0	508	561	0	475	39	9	
9	0	0	0	0	503	562	0	475	39	9	
10	0	0	0	0	505	563	0	476	39	8	
11	0	0	0	0	506	563	0	479	39	8	
12	0	0	0	0	511	564	0	483	39	8	
13	0	0	0	0	505	565	0	507	38	8	
14	0	0	0	0	510	568	0	528	39	9	
15	0	0	0	0	508	568	0	540	39	9	
0	0	0	0	0	505	568	0	556	39	9	
1	0	0	0	0	505	569	0	570	39	9	
2	0	0	0	0	510	570	0	551	39	8	
3	0	0	0	0	511	571	0	540	39	8	
4	0	0	0	0	503	572	0	526	39	8	
5	0	0	0	0	510	572	0	513	38	8	
6	0	0	0	0	508	573	0	504	39	8	
7	0	0	0	0	503	573	0	496	39	9	
8	0	0	0	0	510	574	0	491	38	9	
9	0	0	0	0	504	574	0	486	39	9	
10	0	0	0	0	500	575	0	488	38	9	
11	0	0	0	0	506	575	0	485	39	8	
12	0	0	0	0	511	575	0	487	39	8	
13	0	0	0	0	508	576	0	485	38	8	
14	0	0	0	0	501	575	0	485	39	8	
15	0	0	0	0	505	575	0	481	38	9	
0	0	0	0	0	511	575	0	482	38	9	
1	0	0	0	0	513	575	0	480	39	9	
2	0	0	0	0	508	575	0	483	38	9	
3	0	0	0	0	509	575	0	486	38	8	
4	0	0	0	0	506	575	0	490	38	8	
5	0	0	0	0	510	575	0	491	38	8	
6	0	0	0	0	509	575	0	487	38	8	
7	0	0	0	0	505	575	0	484	39	9	
8	0	0	0	0	511	575	0	483	38	9	
9	0	0	0	0	508	575	0	487	39	9	
10	0	0	0	0	509	575	0	488	38	9	
11	0	0	0	0	508	575	0	505	38	8	
12	0	0	0	0	507	575	0	493	38	8	
13	0	0	0	0	504	575	0	496	38	8	
14	0	0	0	0	515	575	0	499	38	8	
15	0	0	0	0	509	575	0	521	38	8	
0	0	0	0	0	506	574	0	534	38	9	
1	0	0	0	0	504	574	0	547	39	9	
2	0	0	0	0	507	575	0	566	39	9	
3	0	0	0	0	512	575	0	568	38	9	
4	0	0	0	0	507	575	0	581	38	8	
5	0	0	0	0	507	574	0	579	38	8	
6	0	0	0	0	502	575	0	580	38	8	
7	0	0	0	0	505	575	0	585	39	8	
8	0	0	0	0	507	574	0	579	39	9	
9	0	0	0	0	507	573	0	584	39	9	
10	0	0	0	0	505	573	0	584	39	9	
11	0	0	0	0	501	572	0	576	39	9	
12	0	0	0	0	508	571	0	572	39	8	
13	0	0	0	0	513	569	0	568	38	8	
14	0	0	0	0	512	568	0	565	39	8	
15	0	0	0	0	507	567	0	570	39	8	
0	0	0	0	0	511	566	0	575	39	9	
1	0	0	0	0	507	565	0	570	39	9	
2	0	0	0	0	500	563	0	563	39	9	
3	0	0	0	0	505	562	0	551	39	9	
4	0	0	0	0	512	560	0	538	39	8	
5	0	0	0	0	503	558	0	527	38	8	
6	0	0	0	0	504	557	0	519	39	8	
7	0	0	0	0	502	556	0	513	39	8	
8	0	0	0	0	510	555	0	508	39	8	
9	0	0	0	0	511	553	0	503	39	9	
10	0	0	0	0	511	552	0	502	39	9	
11	0	0	0	0	512	550	0	502	39	9	
12	0	0	0	0	511	548	0	503	39	9	
13	0	0	0	0	503	547	0	505	38	8	
14	0	0	0	0	504	544	0	500	39	8	
15	0	0	0	0	508	543	0	497	39	8	
0	0	0	0	0	503	540	0	494	39	8	
1	0	0	0	0	515	538	0	495	39	9	
2	0	0	0	0	511	536	0	497	39	9	
3	0	0	0	0	508	534	0	499	39	9	
4	0	0	0	0	508	532	0	501	39	9	
5	0	0	0	0	513	530	0	503	38	8	
6	0	0	0	0	508	528	0	503	39	8	
7	0	0	0	0	507	527	0	499	39	8	
8	0	0	0	0	507	525	0	500	38	8	
9	0	0	0	0	508	523	0	499	39	9	
10	0	0	0	0	500	521	0	501	38	9	
11	0	0	0	0	507	519	0	500	39	9	
12	0	0	0	0	505	517	0	502	38	9	
13	0	0	0	0	504	515	0	500	38	8	
14	0	0	0	0	501	513	0	499	38	8	
15	0	0	0	0	512	511	0	495	39	8	
0	0	0	0	0	509	509	0	493	38	8	
1	0	0	0	0	512	507	0	492	39	9	
2	0	0	0	0	506	504	0	492	38	9	
3	0	0	0	0	511	503	0	494	38	9	
4	0	0	0	0	509	500	0	495	38	9	
5	0	0	0	0	509	498	0	497	38	9	
6	0	0	0	0	507	496	0	498	38	8	
7	0	0	0	0	509	494	0	494	38	8	
8	0	0	0	0	512	491	0	492	38	8	
9	0	0	0	0	508	488	0	493	39	8	
10	0	0	0	0	502	484	0	494	38	9	
11	0	0	0	0	504	481	0	495	39	9	
12	0	0	0	0	502	477	0	496	39	9	
13	0	0	0	0	502	474	0	495	38	9	
14	0	0	0	0	512	470	0	494	38	8	
15	0	0	0	0	509	467	0	488	38	8	
0	0	0	0	0	510	463	0	486	38	8	
1	0	0	0	0	514	459	0	486	39	8	
2	0	0	0	0	507	455	0	486	39	9	
3	0	0	0	0	505	452	0	491	39	9	
4	0	0	0	0	507	448	0	491	39	9	
5	0	0	0	0	505	444	0	508	38	9	
6	0	0	0	0	508	440	0	490	39	8	
7	0	0	0	0	505	438	0	487	39	8	
8	0	0	0	0	512	435	0	483	39	8	
9	0	0	0	0	505	433	0	485	39	8	
10	0	0	0	0	498	431	0	487	39	9	
11	0	0	0	0	507	430	0	489	38	9	
12	0	0	0	0	510	429	0	491	39	9	
13	0	0	0	0	508	429	0	493	38	9	
14	0	0	0	0	509	428	0	494	39	9	
15	0	0	0	0	509	428	0	487	39	8	
0	0	0	0	0	507	427	0	488	39	8	
1	0	0	0	0	512	427	0	501	39	8	
2	0	0	0	0	514	427	0	528	39	8	
3	0	0	0	0	500	427	0	538	39	9	
4	0	0	0	0	502	426	0	559	39	9	
5	0	0	0	0	509	427	0	560	38	9	
6	0	0	0	0	508	427	0	560	39	9	
7	0	0	0	0	512	427	0	568	39	8	
8	0	0	0	0	509	427	0	561	39	8	
9	0	0	0	0	503	428	0	567	39	8	
10	0	0	0	0	507	428	0	564	39	8	
11	0	0	0	0	505	430	0	564	39	9	
12	0	0	0	0	505	430	0	572	39	9	
13	0	0	0	0	508	431	0	569	38	9	
14	0	0	0	0	510	431	0	573	39	9	
15	0	0	0	0	511	432	0	564	39	9	
0	0	0	0	0	507	433	0	557	39	8	
1	0	0	0	0	504	434	0	563	39	8	
2	0	0	0	0	504	435	0	555	39	8	
3	0	0	0	0	508	436	0	563	39	9	
4	0	0	0	0	502	436	0	564	39	9	
5	0	0	0	0	504	437	0	564	38	9	
6	0	0	0	0	510	438	0	568	39	9	
7	0	0	0	0	505	439	0	553	39	9	
8	0	0	0	0	512	440	0	557	38	8	
9	0	0	0	0	511	440	0	557	39	8	
10	0	0	0	0	511	443	0	568	39	8	
11	0	0	0	0	508	444	0	563	39	8	
12	0	0	0	0	514	446	0	556	38	9	
13	0	0	0	0	501	447	0	561	38	9	
14	0	0	0	0	508	449	0	554	38	9	
15	0	0	0	0	506	451	0	543	39	9	
0	0	0	0	0	500	452	0	532	38	8	
1	0	0	0	0	506	453	0	519	39	8	
2	0	0	0	0	506	455	0	508	38	8	
3	0	0	0	0	501	456	0	508	39	8	
4	0	0	0	0	505	458	0	502	38	9	
5	0	0	0	0	508	460	0	499	38	9	
6	0	0	0	0	512	461	0	493	39	9	
7	0	0	0	0	515	463	0	491	39	9	
8	0	0	0	0	499	465	0	484	39	9	
9	0	0	0	0	504	466	0	494	39	8	
10	0	0	0	0	513	467	0	477	39	8	
11	0	0	0	0	512	468	0	476	39	8	
12	0	0	0	0	508	469	0	474	39	9	
13	0	0	0	0	510	471	0	472	38	9	
14	0	0	0	0	509	472	0	472	38	9	
15	0	0	0	0	505	473	0	469	38	9	
0	0	0	0	0	505	474	0	465	38	9	
1	0	0	0	0	508	475	0	463	39	8	
2	0	0	0	0	509	476	0	461	39	8	
3	0	0	0	0	511	477	0	462	38	8	
4	0	0	0	0	512	478	0	464	39	8	
5	0	0	0	0	505	479	0	467	38	9	
6	0	0	0	0	506	479	0	469	39	9	
7	0	0	0	0	511	480	0	464	38	9	
8	0	0	0	0	515	480	0	472	39	9	
9	0	0	0	0	504	481	0	463	39	8	
10	0	0	0	0	501	481	0	465	38	8	
11	0	0	0	0	506	482	0	467	38	8	
12	0	0	0	0	505	482	0	468	38	8	
13	0	0	0	0	504	483	0	469	38	9	
14	0	0	0	0	504	484	0	468	39	9	
15	0	0	0	0	506	485	0	467	38	9	
0	0	0	0	0	509	486	0	488	39	9	
1	0	0	0	0	499	487	0	506	39	9	
2	0	0	0	0	512	488	0	520	39	8	
3	0	0	0	0	508	488	0	540	39	8	
4	0	0	0	0	513	488	0	538	39	8	
5	0	0	0	0	514	489	0	553	38	9	
6	0	0	0	0	509	489	0	553	39	9	
7	0	0	0	0	501	490	0	552	39	9	
8	0	0	0	0	505	491	0	556	38	9	
9	0	0	0	0	504	492	0	548	39	9	
10	0	0	0	0	511	494	0	553	39	8	
11	0	0	0	0	511	495	0	550	39	8	
12	0	0	0	0	510	496	0	543	39	8	
13	0	0	0	0	513	497	0	539	38	8	
14	0	0	0	0	503	498	0	548	39	9	
15	0	0	0	0	506	499	0	544	39	9	
0	0	0	0	0	511	501	0	539	38	9	
1	0	0	0	0	508	502	0	527	39	9	
2	0	0	0	0	508	504	0	514	38	8	
3	0	0	0	0	510	504	0	502	38	8	
4	0	0	0	0	510	505	0	495	39	8	
5	0	0	0	0	509	505	0	487	38	8	
6	0	0	0	0	508	507	0	484	39	9	
7	0	0	0	0	501	508	0	478	39	9	
8	0	0	0	0	502	509	0	477	39	9	
9	0	0	0	0	503	509	0	472	39	9	
10	0	0	0	0	506	510	0	471	38	9	
11	0	0	0	0	511	510	0	471	39	8	
12	0	0	0	0	503	510	0	472	39	8	
13	0	0	0	0	508	510	0	473	38	8	
14	0	0	0	0	508	510	0	473	39	9	
15	0	0	0	0	509	510	0	470	39	9	
0	0	0	0	0	510	510	0	470	39	9	
1	0	0	0	0	503	510	0	473	39	9	
2	0	0	0	0	507	510	0	474	39	9	
3	0	0	0	0	506	511	0	477	39	8	
4	0	0	0	0	505	510	0	476	39	8	
5	0	0	0	0	512	510	0	478	38	8	
6	0	0	0	0	510	510	0	477	39	8	
7	0	0	0	0	505	510	0	477	39	9	
8	0	0	0	0	505	510	0	472	39	9	
9	0	0	0	0	511	510	0	473	39	9	
10	0	0	0	0	509	511	0	478	39	9	
11	0	0	0	0	502	512	0	481	39	8	
12	0	0	0	0	508	512	0	487	39	8	
13	0	0	0	0	513	514	0	487	38	8	
14	0	0	0	0	506	515	0	490	39	8	
15	0	0	0	0	505	516	0	499	39	9	
0	0	0	0	0	508	518	0	521	39	9	
1	0	0	0	0	510	519	0	529	39	9	
2	0	0	0	0	510	520	0	552	39	9	
3	0	0	0	0	509	521	0	560	39	8	
4	0	0	0	0	508	523	0	566	39	8	
5	0	0	0	0	503	523	0	577	38	8	
6	0	0	0	0	508	525	0	571	39	8	
7	0	0	0	0	507	526	0	576	39	8	
8	0	0	0	0	510	526	0	572	39	9	
9	0	0	0	0	507	527	0	572	39	9	
10	0	0	0	0	499	527	0	577	39	9	
11	0	0	0	0	505	528	0	574	38	9	
12	0	0	0	0	509	528	0	566	39	8	
13	0	0	0	0	515	528	0	569	38	8	
14	0	0	0	0	508	527	0	571	39	8	
15	0	0	0	0	511	527	0	563	39	8	
0	0	0	0	0	506	526	0	555	39	9	
1	0	0	0	0	505	526	0	542	39	9	
2	0	0	0	0	508	526	0	526	39	9	
3	0	0	0	0	511	526	0	517	39	9	
4	0	0	0	0	510	525	0	511	38	8	
5	0	0	0	0	508	525	0	505	38	8	
6	0	0	0	0	508	524	0	504	38	8	
7	0	0	0	0	500	523	0	495	38	8	
8	0	0	0	0	504	523	0	492	38	9	
9	0	0	0	0	505	521	0	490	39	9	
10	0	0	0	0	511	521	0	492	38	9	
11	0	0	0	0	506	521	0	492	38	9	
12	0	0	0	0	513	521	0	490	38	8	
13	0	0	0	0	514	521	0	493	38	8	
14	0	0	0	0	504	520	0	489	38	8	
15	0	0	0	0	506	519	0	486	38	8	
0	0	0	0	0	512	519	0	482	38	8	
1	0	0	0	0	505	518	0	483	39	9	
2	0	0	0	0	507	518	0	485	38	9	
3	0	0	0	0	509	518	0	488	39	9	
4	0	0	0	0	505	517	0	491	38	9	
5	0	0	0	0	504	517	0	493	38	8	
6	0	0	0	0	509	516	0	492	39	8	
7	0	0	0	0	509	516	0	492	39	8	
8	0	0	0	0	505	515	0	490	39	8	
9	0	0	0	0	503	513	0	492	39	9	
10	0	0	0	0	512	512	0	497	39	9	
11	0	0	0	0	503	512	0	497	39	9	
12	0	0	0	0	506	511	0	513	39	9	
13	0	0	0	0	504	511	0	538	38	8	
14	0	0	0	0	509	510	0	548	39	8	
15	0	0	0	0	506	509	0	564	39	8	
0	0	0	0	0	509	508	0	566	39	8	
1	0	0	0	0	509	507	0	569	39	9	
2	0	0	0	0	505	507	0	582	39	9	
3	0	0	0	0	510	506	0	576	39	9	
4	0	0	0	0	511	504	0	584	39	9	
5	0	0	0	0	512	504	0	584	38	8	
6	0	0	0	0	507	503	0	580	39	8	
7	0	0	0	0	498	502	0	583	39	8	
8	0	0	0	0	504	500	0	568	39	8	
9	0	0	0	0	504	499	0	560	39	9	
10	0	0	0	0	504	497	0	543	39	9	
11	0	0	0	0	507	496	0	531	39	9	
12	0	0	0	0	509	495	0	518	39	9	
13	0	0	0	0	508	493	0	512	38	9	
14	0	0	0	0	506	491	0	508	39	8	
15	0	0	0	0	506	490	0	504	39	8	
0	0	0	0	0	516	488	0	500	39	8	
1	0	0	0	0	508	487	0	499	39	8	
2	0	0	0	0	505	486	0	500	39	9	
3	0	0	0	0	511	485	0	501	39	9	
4	0	0	0	0	514	483	0	499	39	9	
5	0	0	0	0	504	482	0	498	38	9	
6	0	0	0	0	508	480	0	495	39	8	
7	0	0	0	0	503	479	0	491	39	8	
8	0	0	0	0	504	478	0	487	39	8	
9	0	0	0	0	501	477	0	483	39	8	
10	0	0	0	0	505	477	0	487	39	9	
11	0	0	0	0	504	477	0	486	39	9	
12	0	0	0	0	509	477	0	503	39	9	
13	0	0	0	0	512	477	0	487	38	9	
14	0	0	0	0	509	477	0	486	39	8	
15	0	0	0	0	510	477	0	481	38	8	
0	0	0	0	0	508	477	0	476	38	8	
1	0	0	0	0	506	478	0	476	39	8	
2	0	0	0	0	519	478	0	478	39	9	
3	0	0	0	0	512	478	0	479	38	9	
4	0	0	0	0	505	478	0	482	38	9	
5	0	0	0	0	512	478	0	483	38	9	
6	0	0	0	0	505	479	0	484	39	9	
7	0	0	0	0	508	479	0	481	39	8	
8	0	0	0	0	500	479	0	499	39	8	
9	0	0	0	0	512	479	0	523	39	8	
10	0	0	0	0	507	479	0	533	38	8	
11	0	0	0	0	508	478	0	558	38	9	
12	0	0	0	0	500	477	0	557	38	9	
13	0	0	0	0	504	477	0	578	38	9	
14	0	0	0	0	499	477	0	565	38	9	
15	0	0	0	0	509	476	0	556	39	8	
0	0	0	0	0	505	475	0	566	38	8	
1	0	0	0	0	505	474	0	564	39	8	
2	0	0	0	0	515	473	0	567	39	8	
3	0	0	0	0	510	472	0	569	39	9	
4	0	0	0	0	507	471	0	561	39	9	
5	0	0	0	0	510	470	0	555	38	9	
6	0	0	0	0	503	469	0	561	39	9	
7	0	0	0	0	504	469	0	558	39	9	
8	0	0	0	0	508	468	0	552	39	8	
9	0	0	0	0	505	468	0	541	39	8	
10	0	0	0	0	500	467	0	530	39	8	
11	0	0	0	0	504	467	0	515	39	9	
12	0	0	0	0	512	468	0	506	39	9	
13	0	0	0	0	504	468	0	496	38	9	
14	0	0	0	0	509	469	0	490	39	9	
15	0	0	0	0	508	469	0	486	39	9	
0	0	0	0	0	505	469	0	482	39	8	
1	0	0	0	0	507	470	0	480	39	8	
2	0	0	0	0	509	471	0	481	39	8	
3	0	0	0	0	506	472	0	483	38	8	
4	0	0	0	0	512	472	0	484	39	9	
5	0	0	0	0	513	473	0	485	38	9	
6	0	0	0	0	505	473	0	480	38	9	
7	0	0	0	0	500	475	0	477	38	9	
8	0	0	0	0	507	475	0	472	38	8	
9	0	0	0	0	509	475	0	474	39	8	
10	0	0	0	0	507	475	0	473	39	8	
11	0	0	0	0	505	476	0	475	39	8	
12	0	0	0	0	507	477	0	476	39	9	
13	0	0	0	0	506	477	0	478	38	9	
14	0	0	0	0	504	479	0	480	38	9	
15	0	0	0	0	508	479	0	476	39	9	
0	0	0	0	0	511	480	0	477	38	9	
1	0	0	0	0	507	481	0	476	39	8	
2	0	0	0	0	509	482	0	480	39	8	
3	0	0	0	0	505	483	0	480	39	8	
4	0	0	0	0	506	484	0	481	39	9	
5	0	0	0	0	510	484	0	481	38	9	
6	0	0	0	0	514	485	0	481	39	9	
7	0	0	0	0	511	486	0	476	38	9	
8	0	0	0	0	505	487	0	474	39	9	
9	0	0	0	0	506	488	0	472	39	8	
10	0	0	0	0	504	489	0	473	39	8	
11	0	0	0	0	515	491	0	475	39	8	
12	0	0	0	0	502	493	0	478	39	8	
13	0	0	0	0	505	495	0	480	38	9	
14	0	0	0	0	513	497	0	480	38	9	
15	0	0	0	0	502	498	0	479	39	9	
0	0	0	0	0	508	500	0	476	38	9	
1	0	0	0	0	508	503	0	478	39	8	
2	0	0	0	0	505	504	0	479	39	8	
3	0	0	0	0	506	507	0	497	39	8	
4	0	0	0	0	506	508	0	481	39	8	
5	0	0	0	0	507	510	0	483	38	9	
6	0	0	0	0	508	512	0	482	39	9	
7	0	0	0	0	506	513	0	480	39	9	
8	0	0	0	0	508	512	0	476	38	9	
9	0	0	0	0	507	510	0	476	39	9	
10	0	0	0	0	509	507	0	478	38	8	
11	0	0	0	0	504	504	0	483	39	8	
12	0	0	0	0	502	498	0	485	39	8	
13	0	0	0	0	506	493	0	487	38	9	
14	0	0	0	0	510	487	0	484	39	9	
15	0	0	0	0	516	483	0	481	39	9	
0	0	0	0	0	509	476	0	479	39	9	
1	0	0	0	0	505	471	0	480	39	9	
2	0	0	0	0	505	464	0	484	39	8	
3	0	0	0	0	505	459	0	484	39	8	
4	0	0	0	0	500	453	0	487	39	8	
5	0	0	0	0	505	448	0	488	38	8	
6	0	0	0	0	510	442	0	487	39	9	
7	0	0	0	0	513	437	0	482	39	9	
8	0	0	0	0	508	438	0	500	39	9	
9	0	0	0	0	501	440	0	523	39	9	
10	0	0	0	0	508	445	0	534	39	8	
11	0	0	0	0	510	450	0	555	39	8	
12	0	0	0	0	507	459	0	559	39	8	
13	0	0	0	0	513	465	0	567	38	8	
14	0	0	0	0	508	475	0	571	39	9	
15	0	0	0	0	504	482	0	568	38	9	
0	0	0	0	0	506	493	0	575	39	9	
1	0	0	0	0	506	502	0	568	39	9	
2	0	0	0	0	511	513	0	569	38	9	
3	0	0	0	0	502	521	0	578	39	8	
4	0	0	0	0	508	531	0	572	38	8	
5	0	0	0	0	511	541	0	582	38	8	
6	0	0	0	0	504	552	0	567	38	8	
7	0	0	0	0	508	560	0	566	38	9	
8	0	0	0	0	504	568	0	566	39	9	
9	0	0	0	0	503	572	0	560	39	9	
10	0	0	0	0	513	577	0	569	39	9	
11	0	0	0	0	512	580	0	565	39	8	
12	0	0	0	0	507	583	0	568	39	8	
13	0	0	0	0	507	584	0	571	38	8	
14	0	0	0	0	508	586	0	562	39	8	
15	0	0	0	0	504	587	0	569	39	9	
0	0	0	0	0	508	588	0	561	38	9	
1	0	0	0	0	512	589	0	564	39	9	
2	0	0	0	0	517	590	0	571	39	9	
3	0	0	0	0	507	590	0	565	39	8	
4	0	0	0	0	508	591	0	563	39	8	
5	0	0	0	0	505	591	0	570	38	8	
6	0	0	0	0	507	592	0	566	39	8	
7	0	0	0	0	504	592	0	557	39	9	
8	0	0	0	0	503	592	0	548	39	9	
9	0	0	0	0	508	592	0	534	39	9	
10	0	0	0	0	513	592	0	522	38	9	
11	0	0	0	0	513	592	0	511	39	8	
12	0	0	0	0	507	592	0	504	38	8	
13	0	0	0	0	506	592	0	500	38	8	
14	0	0	0	0	507	592	0	495	38	8	
15	0	0	0	0	506	592	0	493	39	8	
0	0	0	0	0	505	592	0	486	38	9	
1	0	0	0	0	509	592	0	486	39	9	
2	0	0	0	0	504	592	0	486	39	9	
3	0	0	0	0	511	592	0	488	39	9	
4	0	0	0	0	508	592	0	488	39	8	
5	0	0	0	0	509	592	0	488	38	8	
6	0	0	0	0	513	592	0	489	39	8	
7	0	0	0	0	509	591	0	483	39	8	
8	0	0	0	0	510	592	0	482	39	9	
9	0	0	0	0	512	591	0	483	39	9	
10	0	0	0	0	504	591	0	486	39	9	
11	0	0	0	0	503	591	0	488	39	9	
12	0	0	0	0	504	590	0	492	39	8	
13	0	0	0	0	503	589	0	495	38	8	
14	0	0	0	0	508	588	0	496	39	8	
15	0	0	0	0	509	587	0	494	39	8	
0	0	0	0	0	504	586	0	491	39	9	
1	0	0	0	0	508	585	0	492	39	9	
2	0	0	0	0	505	585	0	493	39	9	
3	0	0	0	0	505	584	0	495	39	9	
4	0	0	0	0	511	584	0	514	39	8	
5	0	0	0	0	505	583	0	536	38	8	
6	0	0	0	0	513	583	0	546	39	8	
7	0	0	0	0	510	582	0	565	39	8	
8	0	0	0	0	507	581	0	561	39	8	
9	0	0	0	0	513	579	0	568	39	9	
10	0	0	0	0	510	577	0	576	39	9	
11	0	0	0	0	499	576	0	576	39	9	
12	0	0	0	0	512	574	0	586	39	9	
13	0	0	0	0	508	572	0	577	38	8	
14	0	0	0	0	506	570	0	580	38	8	
15	0	0	0	0	509	568	0	578	38	8	
0	0	0	0	0	505	565	0	574	38	8	
1	0	0	0	0	501	563	0	558	39	9	
2	0	0	0	0	506	561	0	544	39	9	
3	0	0	0	0	505	559	0	528	38	9	
4	0	0	0	0	505	557	0	519	39	9	
5	0	0	0	0	510	555	0	511	38	8	
6	0	0	0	0	504	553	0	505	38	8	
7	0	0	0	0	512	551	0	501	38	8	
8	0	0	0	0	508	548	0	497	38	8	
9	0	0	0	0	507	546	0	498	39	9	
10	0	0	0	0	511	543	0	496	38	9	
11	0	0	0	0	507	540	0	498	39	9	
12	0	0	0	0	504	537	0	496	39	9	
13	0	0	0	0	511	534	0	504	38	8	
14	0	0	0	0	503	531	0	494	38	8	
15	0	0	0	0	510	528	0	491	38	8	
0	0	0	0	0	510	525	0	488	38	8	
1	0	0	0	0	519	522	0	488	39	8	
2	0	0	0	0	511	519	0	491	38	9	
3	0	0	0	0	508	516	0	494	38	9	
4	0	0	0	0	505	513	0	497	38	9	
5	0	0	0	0	505	510	0	499	38	9	
6	0	0	0	0	506	507	0	499	38	8	
7	0	0	0	0	508	504	0	497	38	8	
8	0	0	0	0	506	501	0	495	38	8	
9	0	0	0	0	502	499	0	497	39	8	
10	0	0	0	0	509	497	0	500	39	9	
11	0	0	0	0	509	496	0	499	39	9	
12	0	0	0	0	509	494	0	502	39	9	
13	0	0	0	0	510	492	0	515	38	9	
14	0	0	0	0	507	491	0	539	39	8	
15	0	0	0	0	503	490	0	543	39	8	
0	0	0	0	0	514	488	0	563	39	8	
1	0	0	0	0	510	487	0	568	39	8	
2	0	0	0	0	505	486	0	573	39	9	
3	0	0	0	0	505	484	0	587	39	9	
4	0	0	0	0	504	483	0	585	39	9	
5	0	0	0	0	500	483	0	591	38	9	
6	0	0	0	0	502	482	0	583	39	9	
7	0	0	0	0	513	481	0	576	39	8	
8	0	0	0	0	504	480	0	578	39	8	
9	0	0	0	0	504	479	0	571	39	8	
10	0	0	0	0	509	477	0	561	39	8	
11	0	0	0	0	510	476	0	544	39	9	
12	0	0	0	0	511	474	0	527	39	9	
13	0	0	0	0	515	473	0	514	38	9	
14	0	0	0	0	502	471	0	503	39	9	
15	0	0	0	0	506	470	0	496	39	8	
0	0	0	0	0	509	468	0	511	39	8	
1	0	0	0	0	502	467	0	527	39	8	
2	0	0	0	0	506	465	0	535	39	8	
3	0	0	0	0	514	464	0	535	39	9	
4	0	0	0	0	515	462	0	538	39	9	
5	0	0	0	0	507	461	0	516	38	9	
6	0	0	0	0	505	460	0	520	39	9	
7	0	0	0	0	509	458	0	532	38	8	
8	0	0	0	0	507	456	0	532	39	8	
9	0	0	0	0	506	455	0	536	39	8	
10	0	0	0	0	507	454	0	527	38	8	
11	0	0	0	0	509	454	0	520	39	9	
12	0	0	0	0	513	451	0	513	39	9	
13	0	0	0	0	503	450	0	510	38	9	
14	0	0	0	0	505	449	0	502	38	9	
15	0	0	0	0	508	448	0	502	39	9	
0	0	0	0	0	511	447	0	495	38	8	
1	0	0	0	0	514	447	0	494	39	8	
2	0	0	0	0	507	446	0	494	39	8	
3	0	0	0	0	511	445	0	493	39	8	
4	0	0	0	0	502	443	0	492	39	9	
5	0	0	0	0	511	442	0	491	38	9	
6	0	0	0	0	512	441	0	489	39	9	
7	0	0	0	0	511	440	0	487	39	9	
8	0	0	0	0	502	438	0	483	38	8	
9	0	0	0	0	507	437	0	479	39	8	
10	0	0	0	0	504	436	0	484	38	8	
11	0	0	0	0	501	434	0	481	39	8	
12	0	0	0	0	512	433	0	483	39	9	
13	0	0	0	0	510	432	0	483	38	9	
14	0	0	0	0	506	430	0	479	39	9	
15	0	0	0	0	497	430	0	474	39	9	
0	0	0	0	0	505	428	0	470	38	8	
1	0	0	0	0	505	427	0	471	39	8	
2	0	0	0	0	514	426	0	473	38	8	
3	0	0	0	0	504	425	0	476	38	8	
4	0	0	0	0	506	423	0	479	38	9	
5	0	0	0	0	503	422	0	489	38	9	
6	0	0	0	0	516	420	0	510	38	9	
7	0	0	0	0	509	419	0	519	39	9	
8	0	0	0	0	507	419	0	531	38	9	
9	0	0	0	0	511	419	0	543	39	8	
10	0	0	0	0	515	420	0	544	39	8	
11	0	0	0	0	511	420	0	558	39	8	
12	0	0	0	0	509	422	0	556	39	8	
13	0	0	0	0	501	422	0	559	38	9	
14	0	0	0	0	505	423	0	565	39	9	
15	0	0	0	0	504	424	0	555	39	9	
0	0	0	0	0	508	425	0	565	39	9	
1	0	0	0	0	508	427	0	558	39	8	
2	0	0	0	0	508	427	0	553	39	8	
3	0	0	0	0	506	429	0	539	39	8	
4	0	0	0	0	505	430	0	526	39	8	
5	0	0	0	0	513	431	0	514	38	9	
6	0	0	0	0	506	432	0	504	39	9	
7	0	0	0	0	507	433	0	497	39	9	
8	0	0	0	0	507	433	0	489	39	9	
9	0	0	0	0	505	433	0	485	39	8	
10	0	0	0	0	501	434	0	483	39	8	
11	0	0	0	0	513	434	0	481	38	8	
12	0	0	0	0	509	434	0	479	39	8	
13	0	0	0	0	507	434	0	477	38	9	
14	0	0	0	0	511	434	0	476	38	9	
15	0	0	0	0	501	435	0	473	39	9	
0	0	0	0	0	509	435	0	471	38	9	
1	0	0	0	0	510	435	0	467	39	9	
2	0	0	0	0	506	435	0	470	39	8	
3	0	0	0	0	506	435	0	468	39	8	
4	0	0	0	0	506	436	0	471	38	8	
5	0	0	0	0	515	436	0	470	38	9	
6	0	0	0	0	512	436	0	466	39	9	
7	0	0	0	0	502	437	0	461	39	9	
8	0	0	0	0	509	439	0	457	39	9	
9	0	0	0	0	511	440	0	457	39	9	
10	0	0	0	0	506	443	0	458	38	8	
11	0	0	0	0	506	444	0	463	38	8	
12	0	0	0	0	507	447	0	463	39	8	
13	0	0	0	0	509	448	0	479	38	8	
14	0	0	0	0	507	451	0	470	39	9	
15	0	0	0	0	510	454	0	493	38	9	
0	0	0	0	0	509	456	0	505	39	9	
1	0	0	0	0	509	460	0	518	39	9	
2	0	0	0	0	507	463	0	536	39	8	
3	0	0	0	0	511	465	0	539	39	8	
4	0	0	0	0	509	468	0	550	39	8	
5	0	0	0	0	508	471	0	552	38	8	
6	0	0	0	0	509	473	0	552	39	9	
7	0	0	0	0	504	476	0	559	39	9	
8	0	0	0	0	510	480	0	552	39	9	
9	0	0	0	0	504	483	0	557	39	9	
10	0	0	0	0	503	487	0	554	39	9	
11	0	0	0	0	514	490	0	546	39	8	
12	0	0	0	0	511	494	0	536	39	8	
13	0	0	0	0	505	499	0	520	38	8	
14	0	0	0	0	498	503	0	509	39	8	
15	0	0	0	0	504	506	0	514	39	9	
0	0	0	0	0	514	510	0	521	39	9	
1	0	0	0	0	508	514	0	523	39	9	
2	0	0	0	0	504	516	0	523	38	9	
3	0	0	0	0	504	520	0	514	38	8	
4	0	0	0	0	506	524	0	503	39	8	
5	0	0	0	0	508	527	0	495	38	8	
6	0	0	0	0	507	530	0	485	39	8	
7	0	0	0	0	510	533	0	482	39	9	
8	0	0	0	0	510	536	0	471	39	9	
9	0	0	0	0	509	539	0	466	39	9	
10	0	0	0	0	509	543	0	465	39	9	
11	0	0	0	0	509	544	0	465	39	8	
12	0	0	0	0	508	547	0	467	39	8	
13	0	0	0	0	510	548	0	467	38	8	
14	0	0	0	0	514	551	0	465	39	8	
15	0	0	0	0	508	552	0	460	39	9	
0	0	0	0	0	503	554	0	455	39	9	
1	0	0	0	0	508	556	0	458	39	9	
2	0	0	0	0	507	558	0	460	39	9	
3	0	0	0	0	513	559	0	463	39	9	
4	0	0	0	0	508	561	0	465	39	8	
5	0	0	0	0	508	562	0	469	38	8	
6	0	0	0	0	508	564	0	470	38	8	
7	0	0	0	0	506	566	0	467	39	8	
8	0	0	0	0	512	568	0	466	38	9	
9	0	0	0	0	505	570	0	468	39	9	
10	0	0	0	0	505	572	0	472	39	9	
11	0	0	0	0	508	574	0	473	39	9	
12	0	0	0	0	506	576	0	473	39	8	
13	0	0	0	0	509	577	0	474	38	8	
14	0	0	0	0	509	579	0	487	39	8	
15	0	0	0	0	507	580	0	507	39	8	
0	0	0	0	0	505	583	0	513	39	9	
1	0	0	0	0	508	583	0	531	39	9	
2	0	0	0	0	507	585	0	537	39	9	
3	0	0	0	0	505	587	0	543	39	9	
4	0	0	0	0	506	590	0	555	39	8	
5	0	0	0	0	505	591	0	551	38	8	
6	0	0	0	0	498	593	0	557	38	8	
7	0	0	0	0	507	595	0	550	39	8	
8	0	0	0	0	511	596	0	543	38	9	
9	0	0	0	0	507	596	0	551	39	9	
10	0	0	0	0	504	596	0	546	39	9	
11	0	0	0	0	507	595	0	539	39	9	
12	0	0	0	0	512	595	0	526	39	9	
13	0	0	0	0	510	594	0	511	38	8	
14	0	0	0	0	508	594	0	504	39	8	
15	0	0	0	0	503	593	0	492	39	8	
0	0	0	0	0	512	592	0	483	39	8	
1	0	0	0	0	512	591	0	475	39	9	
2	0	0	0	0	505	591	0	472	39	9	
3	0	0	0	0	505	590	0	469	39	9	
4	0	0	0	0	506	588	0	469	39	9	
5	0	0	0	0	511	587	0	468	38	8	
6	0	0	0	0	514	586	0	467	39	8	
7	0	0	0	0	506	585	0	463	39	8	
8	0	0	0	0	511	585	0	462	38	8	
9	0	0	0	0	507	585	0	466	39	9	
10	0	0	0	0	502	586	0	468	39	9	
11	0	0	0	0	502	587	0	485	39	9	
12	0	0	0	0	504	588	0	473	38	9	
13	0	0	0	0	503	589	0	476	38	8	
14	0	0	0	0	510	591	0	478	39	8	
15	0	0	0	0	505	592	0	475	38	8	
0	0	0	0	0	510	594	0	474	38	8	
1	0	0	0	0	515	595	0	476	39	9	
2	0	0	0	0	508	597	0	478	39	9	
3	0	0	0	0	510	598	0	480	39	9	
4	0	0	0	0	513	600	0	481	39	9	
5	0	0	0	0	508	601	0	483	38	8	
6	0	0	0	0	507	603	0	482	39	8	
7	0	0	0	0	510	604	0	479	39	8	
8	0	0	0	0	505	604	0	477	39	8	
9	0	0	0	0	502	605	0	478	39	8	
10	0	0	0	0	508	605	0	480	39	9	
11	0	0	0	0	507	605	0	483	39	9	
12	0	0	0	0	515	605	0	486	39	9	
13	0	0	0	0	511	604	0	489	38	9	
14	0	0	0	0	504	604	0	489	39	8	
15	0	0	0	0	506	604	0	486	39	8	
0	0	0	0	0	505	604	0	485	39	8	
1	0	0	0	0	512	603	0	495	39	8	
2	0	0	0	0	504	602	0	523	39	9	
3	0	0	0	0	509	601	0	537	39	9	
4	0	0	0	0	506	600	0	552	39	9	
5	0	0	0	0	510	600	0	562	38	9	
6	0	0	0	0	505	599	0	560	39	8	
7	0	0	0	0	502	598	0	570	39	8	
8	0	0	0	0	508	596	0	567	38	8	
9	0	0	0	0	509	595	0	569	39	8	
10	0	0	0	0	508	594	0	571	39	9	
11	0	0	0	0	503	592	0	566	38	9	
12	0	0	0	0	502	591	0	576	38	9	
13	0	0	0	0	515	590	0	572	38	9	
14	0	0	0	0	515	588	0	572	38	9	
15	0	0	0	0	505	586	0	569	38	8	
0	0	0	0	0	499	583	0	560	39	8	
1	0	0	0	0	509	582	0	568	39	8	
2	0	0	0	0	508	580	0	563	39	8	
3	0	0	0	0	509	578	0	556	38	9	
4	0	0	0	0	506	576	0	546	39	9	
5	0	0	0	0	504	575	0	532	38	9	
6	0	0	0	0	512	573	0	524	39	9	
7	0	0	0	0	512	572	0	513	39	8	
8	0	0	0	0	508	569	0	508	38	8	
9	0	0	0	0	507	568	0	500	39	8	
10	0	0	0	0	504	565	0	501	39	8	
11	0	0	0	0	512	564	0	498	39	9	
12	0	0	0	0	507	561	0	500	39	9	
13	0	0	0	0	507	559	0	497	38	9	
14	0	0	0	0	498	558	0	497	39	9	
15	0	0	0	0	507	555	0	492	39	8	
0	0	0	0	0	508	552	0	490	39	8	
1	0	0	0	0	505	550	0	487	39	8	
2	0	0	0	0	505	547	0	490	39	8	
3	0	0	0	0	510	545	0	491	38	9	
4	0	0	0	0	506	542	0	492	39	9	
5	0	0	0	0	508	541	0	495	38	9	
6	0	0	0	0	507	538	0	493	39	9	
7	0	0	0	0	516	536	0	489	39	9	
8	0	0	0	0	504	533	0	486	39	8	
9	0	0	0	0	505	529	0	488	39	8	
10	0	0	0	0	508	525	0	491	39	8	
11	0	0	0	0	504	521	0	492	39	8	
12	0	0	0	0	504	515	0	492	39	9	
13	0	0	0	0	507	512	0	493	38	9	
14	0	0	0	0	507	506	0	491	39	9	
15	0	0	0	0	510	502	0	492	39	9	
0	0	0	0	0	511	496	0	518	38	8	
1	0	0	0	0	510	492	0	535	39	8	
2	0	0	0	0	508	487	0	550	39	8	
3	0	0	0	0	503	482	0	565	39	8	
4	0	0	0	0	509	476	0	566	39	9	
5	0	0	0	0	505	472	0	573	38	9	
6	0	0	0	0	511	467	0	573	39	9	
7	0	0	0	0	507	462	0	571	39	9	
8	0	0	0	0	515	457	0	575	39	8	
9	0	0	0	0	507	454	0	566	39	8	
10	0	0	0	0	510	450	0	572	39	8	
11	0	0	0	0	510	448	0	568	39	8	
12	0	0	0	0	497	445	0	561	39	9	
13	0	0	0	0	509	443	0	557	38	9	
14	0	0	0	0	504	440	0	563	39	9	
15	0	0	0	0	508	438	0	558	39	9	
0	0	0	0	0	507	435	0	548	39	9	
1	0	0	0	0	504	434	0	534	39	8	
2	0	0	0	0	505	432	0	520	38	8	
3	0	0	0	0	502	430	0	510	38	8	
4	0	0	0	0	503	427	0	499	38	8	
5	0	0	0	0	513	425	0	493	38	9	
6	0	0	0	0	508	423	0	488	39	9	
7	0	0	0	0	506	421	0	485	39	9	
8	0	0	0	0	514	419	0	480	38	9	
9	0	0	0	0	508	418	0	478	39	8	
10	0	0	0	0	510	416	0	479	39	8	
11	0	0	0	0	511	416	0	478	39	8	
12	0	0	0	0	507	414	0	480	39	8	
13	0	0	0	0	513	413	0	481	38	9	
14	0	0	0	0	505	412	0	487	38	9	
15	0	0	0	0	507	411	0	480	39	9	
0	0	0	0	0	505	410	0	479	39	9	
1	0	0	0	0	509	409	0	478	39	8	
2	0	0	0	0	507	408	0	480	38	8	
3	0	0	0	0	514	407	0	481	39	8	
4	0	0	0	0	505	405	0	482	39	8	
5	0	0	0	0	503	405	0	481	38	9	
6	0	0	0	0	505	403	0	480	39	9	
7	0	0	0	0	502	403	0	476	38	9	
8	0	0	0	0	508	400	0	471	39	9	
9	0	0	0	0	503	399	0	474	39	9	
10	0	0	0	0	506	397	0	473	39	8	
11	0	0	0	0	515	396	0	478	39	8	
12	0	0	0	0	507	393	0	479	39	8	
13	0	0	0	0	511	391	0	488	38	8	
14	0	0	0	0	505	388	0	478	39	9	
15	0	0	0	0	499	387	0	476	38	9	
0	0	0	0	0	508	384	0	480	38	9	
1	0	0	0	0	508	383	0	508	39	9	
2	0	0	0	0	508	380	0	521	38	8	
3	0	0	0	0	510	377	0	539	38	8	
4	0	0	0	0	504	375	0	553	39	8	
5	0	0	0	0	508	372	0	556	38	8	
6	0	0	0	0	505	370	0	568	39	9	
7	0	0	0	0	510	368	0	556	39	9	
8	0	0	0	0	503	367	0	558	39	9	
9	0	0	0	0	508	367	0	556	39	9	
10	0	0	0	0	513	367	0	552	38	8	
11	0	0	0	0	507	368	0	561	39	8	
12	0	0	0	0	509	369	0	558	39	8	
13	0	0	0	0	507	370	0	560	38	8	
14	0	0	0	0	502	371	0	557	39	9	
15	0	0	0	0	509	372	0	543	39	9	
0	0	0	0	0	511	374	0	532	39	9	
1	0	0	0	0	506	375	0	517	39	9	
2	0	0	0	0	513	376	0	504	39	9	
3	0	0	0	0	512	379	0	494	39	8	
4	0	0	0	0	504	380	0	486	39	8	
5	0	0	0	0	501	382	0	481	38	8	
6	0	0	0	0	511	384	0	477	39	8	
7	0	0	0	0	512	385	0	470	39	9	
8	0	0	0	0	509	387	0	469	39	9	
9	0	0	0	0	507	390	0	468	39	9	
10	0	0	0	0	504	392	0	471	39	9	
11	0	0	0	0	505	395	0	473	39	8	
12	0	0	0	0	513	397	0	472	39	8	
13	0	0	0	0	504	400	0	476	38	8	
14	0	0	0	0	507	403	0	474	39	8	
15	0	0	0	0	507	405	0	476	39	9	
0	0	0	0	0	504	408	0	472	39	9	
1	0	0	0	0	507	410	0	472	39	9	
2	0	0	0	0	506	412	0	473	39	9	
3	0	0	0	0	508	414	0	475	38	8	
4	0	0	0	0	511	416	0	476	38	8	
5	0	0	0	0	504	419	0	478	38	8	
6	0	0	0	0	507	421	0	478	38	8	
7	0	0	0	0	508	423	0	474	39	9	
8	0	0	0	0	509	427	0	476	39	9	
9	0	0	0	0	504	430	0	472	39	9	
10	0	0	0	0	505	433	0	474	39	9	
11	0	0	0	0	510	435	0	476	39	9	
12	0	0	0	0	508	438	0	492	39	8	
13	0	0	0	0	508	441	0	516	38	8	
14	0	0	0	0	512	445	0	523	39	8	
15	0	0	0	0	505	448	0	539	39	8	
0	0	0	0	0	506	451	0	544	39	9	
1	0	0	0	0	507	454	0	547	39	9	
2	0	0	0	0	505	457	0	558	39	9	
3	0	0	0	0	509	460	0	552	39	9	
4	0	0	0	0	506	463	0	561	39	8	
5	0	0	0	0	504	465	0	561	38	8	
6	0	0	0	0	507	468	0	560	38	8	
7	0	0	0	0	511	472	0	564	38	8	
8	0	0	0	0	505	475	0	551	38	9	
9	0	0	0	0	506	478	0	544	39	9	
10	0	0	0	0	507	481	0	527	39	9	
11	0	0	0	0	502	484	0	516	39	9	
12	0	0	0	0	507	487	0	504	38	8	
13	0	0	0	0	512	490	0	510	38	8	
14	0	0	0	0	512	493	0	489	39	8	
15	0	0	0	0	512	496	0	483	39	8	
0	0	0	0	0	513	499	0	480	39	9	
1	0	0	0	0	514	501	0	479	39	9	
2	0	0	0	0	505	504	0	479	39	9	
3	0	0	0	0	504	507	0	477	39	9	
4	0	0	0	0	510	510	0	476	39	9	
5	0	0	0	0	501	513	0	475	38	8	
6	0	0	0	0	508	516	0	478	39	8	
