timestamp,signal
0,511
1,518
2,505
3,501
4,499
5,502
6,527
7,527
8,504
9,500
10,503
11,499
12,487
13,481
14,514
15,535
16,516
17,520
18,515
19,515
20,505
21,496
22,508
23,510
24,508
25,510
26,511
27,508
28,508
29,502
30,508
31,505
32,512
33,512
34,509
35,505
36,511
37,504
38,489
39,490
40,536
41,544
42,523
43,504
44,498
45,497
46,514
47,513
48,495
49,501
50,527
51,515
52,516
53,521
54,510
55,511
56,505
57,497
58,497
59,504
60,512
61,514
62,501
63,520
64,507
65,496
66,513
67,514
68,524
69,507
70,504
71,509
72,507
73,506
74,510
75,505
76,500
77,502
78,497
79,500
80,513
81,529
82,524
83,512
84,509
85,509
86,512
87,507
88,506
89,512
90,504
91,486
92,502
93,529
94,524
95,503
96,495
97,509
98,508
99,509
100,507
101,523
102,519
103,499
104,497
105,505
106,523
107,523
108,515
109,508
110,507
111,507
112,504
113,500
114,499
115,502
116,504
117,513
118,523
119,515
120,509
121,502
122,487
123,496
124,495
125,510
126,519
127,523
128,534
129,537
130,506
131,505
132,513
133,510
134,500
135,503
136,501
137,502
138,494
139,492
140,496
141,537
142,532
143,522
144,515
145,504
146,512
147,510
148,512
149,499
150,499
151,498
152,503
153,520
154,518
155,503
156,505
157,515
158,514
159,515
160,509
161,507
162,504
163,497
164,503
165,511
166,508
167,513
168,512
169,510
170,509
171,505
172,506
173,505
174,506
175,513
176,511
177,509
178,510
179,508
180,506
181,507
182,504
183,502
184,502
185,502
186,507
187,516
188,517
189,526
190,505
191,504
192,511
193,515
194,523
195,508
196,513
197,511
198,504
199,496
200,505
201,524
202,529
203,512
204,519
205,514
206,503
207,494
208,492
209,507
210,506
211,505
212,501
213,502
214,499
215,499
216,524
217,519
218,509
219,509
220,509
221,508
222,515
223,510
224,507
225,504
226,492
227,494
228,521
229,533
230,524
231,510
232,511
233,512
234,502
235,505
236,513
237,511
238,504
239,506
240,508
241,508
242,508
243,506
244,505
245,504
246,510
247,514
248,511
249,508
250,506
251,511
252,512
253,509
254,513
255,511
256,510
257,506
258,506
259,503
260,501
261,508
262,517
263,512
264,500
265,487
266,506
267,511
268,543
269,543
270,514
271,504
272,501
273,502
274,486
275,481
276,503
277,516
278,531
279,547
280,515
281,511
282,516
283,508
284,500
285,499
286,500
287,503
288,505
289,505
290,502
291,506
292,512
293,512
294,515
295,509
296,502
297,506
298,509
299,507
300,508
301,505
302,513
303,512
304,511
305,511
306,509
307,508
308,509
309,513
310,511
311,510
312,508
313,510
314,510
315,502
316,512
317,507
318,499
319,494
320,507
321,519
322,521
323,521
324,520
325,512
326,517
327,515
328,507
329,502
330,501
331,503
332,504
333,505
334,502
335,489
336,507
337,532
338,529
339,512
340,508
341,496
342,511
343,515
344,512
345,513
346,510
347,508
348,505
349,502
350,503
351,511
352,512
353,507
354,509
355,508
356,511
357,511
358,509
359,507
360,506
361,506
362,512
363,514
364,509
365,501
366,499
367,499
368,514
369,515
370,508
371,516
372,514
373,511
374,515
375,500
376,483
377,502
378,535
379,537
380,512
381,495
382,502
383,517
384,521
385,505
386,496
387,522
388,525
389,511
390,496
391,486
392,500
393,511
394,528
395,527
396,509
397,504
398,504
399,512
400,511
401,507
402,505
403,506
404,505
405,504
406,504
407,504
408,504
409,504
410,515
411,512
412,505
413,509
414,511
415,508
416,506
417,508
418,514
419,510
420,505
421,506
422,502
423,500
424,502
425,516
426,518
427,515
428,519
429,518
430,510
431,509
432,516
433,514
434,509
435,501
436,499
437,502
438,511
439,508
440,504
441,504
442,503
443,515
444,514
445,511
446,507
447,515
448,512
449,510
450,505
451,509
452,515
453,515
454,513
455,515
456,511
457,509
458,505
459,507
460,506
461,503
462,508
463,504
464,503
465,499
466,492
467,508
468,529
469,525
470,514
471,516
472,513
473,491
474,463
475,473
476,519
477,556
478,558
479,540
480,515
481,504
482,496
483,480
484,509
485,503
486,499
487,515
488,518
489,510
490,505
491,506
492,513
493,510
494,503
495,511
496,515
497,507
498,506
499,503
500,507
501,507
502,505
503,510
504,510
505,507
506,509
507,510
508,508
509,511
510,507
511,504
512,504
513,513
514,511
515,502
516,508
517,523
518,515
519,502
520,492
521,510
522,512
523,521
524,515
525,506
526,511
527,526
528,517
529,515
530,512
531,508
532,503
533,505
534,498
535,478
536,480
537,529
538,541
539,519
540,509
541,513
542,513
543,510
544,511
545,507
546,506
547,510
548,505
549,501
550,502
551,499
552,498
553,505
554,512
555,519
556,521
557,512
558,511
559,511
560,509
561,508
562,508
563,507
564,506
565,511
566,507
567,499
568,488
569,508
570,536
571,526
572,515
573,506
574,503
575,505
576,514
577,509
578,502
579,508
580,504
581,500
582,508
583,521
584,517
585,515
586,509
587,504
588,511
589,510
590,508
591,509
592,508
593,507
594,509
595,509
596,505
597,507
598,508
599,509
600,510
601,508
602,509
603,508
604,507
605,507
606,505
607,504
608,511
609,514
610,513
611,510
612,508
613,521
614,518
615,508
616,513
617,513
618,511
619,505
620,505
621,503
622,506
623,505
624,507
625,508
626,510
627,516
628,517
629,508
630,504
631,511
632,519
633,519
634,511
635,500
636,491
637,494
638,496
639,499
640,509
641,512
642,509
643,510
644,509
645,508
646,517
647,515
648,518
649,516
650,512
651,511
652,511
653,511
654,512
655,513
656,513
657,511
658,507
659,505
660,504
661,503
662,499
663,501
664,511
665,513
666,519
667,521
668,513
669,510
670,508
671,508
672,499
673,490
674,492
675,506
676,526
677,536
678,522
679,512
680,511
681,524
682,510
683,507
684,512
685,508
686,506
687,507
688,505
689,505
690,504
691,503
692,503
693,503
694,502
695,505
696,514
697,508
698,507
699,513
700,511
701,510
702,508
703,510
704,510
705,508
706,506
707,499
708,517
709,512
710,508
711,515
712,511
713,508
714,510
715,508
716,507
717,506
718,506
719,510
720,509
721,509
722,508
723,507
724,506
725,507
726,510
727,509
728,508
729,507
730,508
731,508
732,508
733,507
734,509
735,517
736,513
737,508
738,500
739,503
740,505
741,498
742,499
743,518
744,524
745,515
746,508
747,516
748,526
749,519
750,505
751,504
752,507
753,508
754,504
755,504
756,506
757,502
758,502
759,498
760,500
761,515
762,515
763,497
764,488
765,511
766,536
767,525
768,511
769,505
770,520
771,523
772,513
773,506
774,503
775,497
776,503
777,509
778,516
779,510
780,516
781,513
782,507
783,503
784,507
785,515
786,510
787,505
788,504
789,502
790,504
791,508
792,511
793,512
794,512
795,515
796,511
797,510
798,508
799,508
800,511
801,504
802,508
803,509
804,509
805,507
806,505
807,508
808,508
809,511
810,508
811,511
812,511
813,510
814,505
815,505
816,501
817,511
818,515
819,510
820,502
821,502
822,504
823,504
824,514
825,517
826,518
827,507
828,503
829,509
830,512
831,511
832,507
833,504
834,503
835,513
836,514
837,508
838,505
839,493
840,488
841,502
842,533
843,546
844,533
845,515
846,507
847,506
848,505
849,499
850,505
851,506
852,509
853,507
854,505
855,509
856,509
857,506
858,512
859,508
860,508
861,506
862,508
863,505
864,507
865,509
866,510
867,510
868,513
869,511
870,510
871,511
872,511
873,511
874,507
875,507
876,505
877,504
878,511
879,508
880,507
881,515
882,516
883,511
884,509
885,511
886,496
887,483
888,487
889,517
890,527
891,527
892,520
893,513
894,510
895,514
896,508
897,505
898,501
899,495
900,502
901,524
902,529
903,515
904,515
905,511
906,496
907,502
908,514
909,519
910,508
911,498
912,498
913,521
914,512
915,504
916,503
917,512
918,513
919,508
920,506
921,507
922,507
923,504
924,506
925,512
926,511
927,512
928,512
929,509
930,504
931,512
932,512
933,511
934,507
935,507
936,509
937,514
938,514
939,511
940,505
941,500
942,499
943,512
944,513
945,514
946,513
947,510
948,506
949,511
950,505
951,499
952,511
953,516
954,511
955,512
956,508
957,508
958,510
959,508
960,510
961,510
962,510
963,513
964,505
965,497
966,511
967,509
968,499
969,506
970,514
971,513
972,508
973,511
974,505
975,512
976,527
977,516
978,508
979,498
980,499
981,520
982,519
983,511
984,504
985,509
986,509
987,508
988,508
989,508
990,507
991,508
992,507
993,505
994,506
995,496
996,494
997,515
998,528
999,520
1000,513
1001,500
1002,488
1003,502
1004,531
1005,528
1006,517
1007,510
1008,504
1009,503
1010,503
1011,511
1012,517
1013,507
1014,501
1015,504
1016,517
1017,511
1018,510
1019,511
1020,505
1021,511
1022,518
1023,507
1024,504
1025,508
1026,502
1027,503
1028,512
1029,513
1030,509
1031,507
1032,504
1033,496
1034,505
1035,514
1036,518
1037,512
1038,507
1039,509
1040,509
1041,508
1042,506
1043,507
1044,507
1045,507
1046,503
1047,504
1048,520
1049,511
1050,498
1051,501
1052,521
1053,505
1054,497
1055,532
1056,538
1057,526
1058,506
1059,496
1060,504
1061,506
1062,502
1063,503
1064,516
1065,519
1066,503
1067,506
1068,508
1069,510
1070,506
1071,505
1072,510
1073,504
1074,505
1075,507
1076,509
1077,511
1078,510
1079,507
1080,506
1081,508
1082,509
1083,508
1084,515
1085,509
1086,508
1087,511
1088,508
1089,506
1090,509
1091,513
1092,521
1093,514
1094,508
1095,506
1096,508
1097,508
1098,508
1099,509
1100,507
1101,508
1102,508
1103,507
1104,507
1105,508
1106,506
1107,506
1108,507
1109,506
1110,511
1111,511
1112,507
1113,508
1114,509
1115,509
1116,512
1117,513
1118,509
1119,509
1120,507
1121,506
1122,511
1123,512
1124,512
1125,508
1126,499
1127,494
1128,513
1129,529
1130,527
1131,513
1132,511
1133,508
1134,508
1135,497
1136,492
1137,488
1138,519
1139,533
1140,530
1141,510
1142,504
1143,500
1144,494
1145,509
1146,512
1147,509
1148,508
1149,504
1150,505
1151,514
1152,507
1153,508
1154,510
1155,509
1156,508
1157,506
1158,511
1159,511
1160,506
1161,512
1162,510
1163,508
1164,510
1165,509
1166,504
1167,504
1168,512
1169,517
1170,512
1171,510
1172,508
1173,509
1174,508
1175,507
1176,509
1177,510
1178,510
1179,506
1180,506
1181,507
1182,514
1183,515
1184,508
1185,507
1186,508
1187,511
1188,512
1189,511
1190,510
1191,509
1192,510
1193,507
1194,512
1195,511
1196,511
1197,507
1198,509
1199,508
1200,511
1201,504
1202,507
1203,505
1204,513
1205,513
1206,510
1207,509
1208,509
1209,513
1210,513
1211,513
1212,509
1213,508
1214,504
1215,500
1216,504
1217,512
1218,504
1219,507
1220,499
1221,498
1222,499
1223,501
1224,521
1225,522
1226,521
1227,519
1228,510
1229,510
1230,512
1231,512
1232,508
1233,504
1234,501
1235,500
1236,496
1237,514
1238,538
1239,531
1240,515
1241,509
1242,508
1243,504
1244,504
1245,504
1246,505
1247,506
1248,504
1249,504
1250,506
1251,514
1252,514
1253,511
1254,507
1255,508
1256,509
1257,507
1258,508
1259,511
1260,511
1261,509
1262,511
1263,509
1264,510
1265,508
1266,508
1267,511
1268,510
1269,511
1270,512
1271,512
1272,508
1273,505
1274,512
1275,513
1276,510
1277,510
1278,508
1279,509
1280,508
1281,504
1282,501
1283,499
1284,500
1285,502
1286,505
1287,505
1288,508
1289,511
1290,510
1291,510
1292,514
1293,513
1294,513
1295,509
1296,503
1297,505
1298,505
1299,510
1300,504
1301,512
1302,518
1303,520
1304,520
1305,523
1306,518
1307,509
1308,505
1309,505
1310,504
1311,507
1312,522
1313,519
1314,513
1315,504
1316,502
1317,508
1318,512
1319,508
1320,507
1321,506
1322,508
1323,504
1324,507
1325,505
1326,506
1327,509
1328,508
1329,510
1330,508
1331,505
1332,508
1333,510
1334,508
1335,508
1336,509
1337,506
1338,508
1339,512
1340,508
1341,506
1342,508
1343,510
1344,514
1345,515
1346,512
1347,512
1348,510
1349,505
1350,504
1351,505
1352,508
1353,509
1354,511
1355,508
1356,503
1357,497
1358,504
1359,499
1360,497
1361,516
1362,523
1363,523
1364,521
1365,514
1366,521
1367,515
1368,506
1369,505
1370,503
1371,507
1372,504
1373,505
1374,506
1375,505
1376,505
1377,506
1378,506
1379,504
1380,506
1381,509
1382,507
1383,508
1384,510
1385,508
1386,509
1387,509
1388,508
1389,510
1390,510
1391,509
1392,507
1393,508
1394,508
1395,508
1396,510
1397,511
1398,509
1399,510
1400,510
1401,510
1402,507
1403,507
1404,505
1405,503
1406,507
1407,507
1408,507
1409,509
1410,507
1411,505
1412,502
1413,504
1414,500
1415,508
1416,511
1417,508
1418,511
1419,518
1420,512
1421,506
1422,504
1423,508
1424,512
1425,512
1426,508
1427,503
1428,505
1429,511
1430,519
1431,516
1432,509
1433,506
1434,511
1435,510
1436,505
1437,509
1438,509
1439,508
1440,508
1441,503
1442,502
1443,502
1444,504
1445,508
1446,511
1447,515
1448,510
1449,507
1450,507
1451,504
1452,511
1453,510
1454,508
1455,508
1456,509
1457,506
1458,507
1459,506
1460,508
1461,508
1462,508
1463,508
1464,499
1465,469
1466,437
1467,415
1468,412
1469,448
1470,563
1471,702
1472,774
1473,701
1474,534
1475,422
1476,421
1477,456
1478,479
1479,487
1480,491
1481,493
1482,496
1483,500
1484,500
1485,502
1486,504
1487,503
1488,510
1489,514
1490,512
1491,510
1492,510
1493,510
1494,512
1495,510
1496,508
1497,509
1498,510
1499,512
1500,507
1501,505
1502,507
1503,510
1504,507
1505,501
1506,502
1507,511
1508,529
1509,528
1510,514
1511,514
1512,510
1513,507
1514,506
1515,506
1516,505
1517,502
1518,503
1519,505
1520,512
1521,510
1522,505
1523,507
1524,508
1525,511
1526,511
1527,511
1528,509
1529,508
1530,508
1531,509
1532,509
1533,507
1534,508
1535,508
1536,508
1537,509
1538,509
1539,511
1540,513
1541,510
1542,510
1543,512
1544,512
1545,511
1546,508
1547,508
1548,507
1549,504
1550,505
1551,504
1552,507
1553,504
1554,504
1555,501
1556,506
1557,505
1558,505
1559,507
1560,504
1561,507
1562,510
1563,514
1564,514
1565,511
1566,511
1567,511
1568,513
1569,512
1570,509
1571,508
1572,509
1573,508
1574,508
1575,509
1576,511
1577,514
1578,511
1579,511
1580,510
1581,509
1582,509
1583,511
1584,510
1585,510
1586,508
1587,512
1588,511
1589,508
1590,509
1591,507
1592,508
1593,511
1594,509
1595,508
1596,509
1597,509
1598,510
1599,509
1600,508
1601,508
1602,510
1603,511
1604,509
1605,509
1606,508
1607,511
1608,512
1609,515
1610,511
1611,511
1612,508
1613,511
1614,511
1615,508
1616,506
1617,508
1618,510
1619,509
1620,507
1621,507
1622,506
1623,506
1624,504
1625,507
1626,510
1627,507
1628,506
1629,510
1630,518
1631,516
1632,513
1633,512
1634,513
1635,511
1636,510
1637,509
1638,508
1639,509
1640,508
1641,511
1642,509
1643,510
1644,509
1645,510
1646,510
1647,511
1648,509
1649,512
1650,510
1651,511
1652,510
1653,511
1654,512
1655,508
1656,511
1657,511
1658,509
1659,512
1660,512
1661,508
1662,503
1663,498
1664,497
1665,504
1666,516
1667,534
1668,522
1669,515
1670,503
1671,479
1672,476
1673,509
1674,544
1675,559
1676,540
1677,510
1678,493
1679,493
1680,501
1681,502
1682,503
1683,504
1684,507
1685,507
1686,507
1687,506
1688,507
1689,508
1690,511
1691,512
1692,507
1693,508
1694,510
1695,507
1696,511
1697,512
1698,511
1699,510
1700,511
1701,508
1702,511
1703,511
1704,508
1705,512
1706,509
1707,512
1708,511
1709,510
1710,507
1711,509
1712,510
1713,511
1714,511
1715,511
1716,511
1717,511
1718,509
1719,512
1720,510
1721,504
1722,502
1723,500
1724,500
1725,499
1726,496
1727,502
1728,510
1729,505
1730,500
1731,515
1732,526
1733,526
1734,524
1735,512
1736,505
1737,496
1738,483
1739,495
1740,524
1741,537
1742,540
1743,523
1744,524
1745,517
1746,502
1747,499
1748,501
1749,501
1750,503
1751,502
1752,505
1753,504
1754,505
1755,503
1756,503
1757,502
1758,502
1759,502
1760,504
1761,513
1762,516
1763,520
1764,518
1765,507
1766,488
1767,489
1768,489
1769,489
1770,498
1771,510
1772,530
1773,546
1774,542
1775,566
1776,560
1777,518
1778,461
1779,422
1780,455
1781,537
1782,603
1783,589
1784,515
1785,465
1786,483
1787,497
1788,497
1789,500
1790,501
1791,506
1792,505
1793,507
1794,507
1795,505
1796,508
1797,511
1798,516
1799,513
1800,512
1801,512
1802,509
1803,511
1804,511
1805,508
1806,511
1807,508
1808,510
1809,510
1810,507
1811,509
1812,510
1813,512
1814,512
1815,511
1816,511
1817,511
1818,510
1819,511
1820,512
1821,510
1822,509
1823,508
1824,508
1825,506
1826,507
1827,507
1828,505
1829,509
1830,511
1831,508
1832,510
1833,508
1834,510
1835,508
1836,508
1837,510
1838,508
1839,509
1840,508
1841,511
1842,510
1843,511
1844,509
1845,509
1846,510
1847,511
1848,507
1849,508
1850,508
1851,508
1852,508
1853,509
1854,507
1855,507
1856,507
1857,507
1858,508
1859,510
1860,509
1861,511
1862,510
1863,510
1864,511
1865,511
1866,510
1867,507
1868,509
1869,509
1870,509
1871,509
1872,509
1873,509
1874,509
1875,509
1876,510
1877,508
1878,511
1879,509
1880,510
1881,509
1882,508
1883,507
1884,508
1885,508
1886,508
1887,507
1888,509
1889,508
1890,508
1891,508
1892,510
1893,508
1894,510
1895,508
1896,508
1897,506
1898,507
1899,510
1900,511
1901,509
1902,509
1903,508
1904,508
1905,505
1906,507
1907,506
1908,507
1909,509
1910,512
1911,509
1912,507
1913,505
1914,507
1915,508
1916,505
1917,506
1918,509
1919,509
1920,508
1921,507
1922,508
1923,506
1924,508
1925,508
1926,511
1927,507
1928,508
1929,509
1930,507
1931,509
1932,509
1933,509
1934,509
1935,509
1936,507
1937,509
1938,507
1939,507
1940,507
1941,507
1942,507
1943,509
1944,510
1945,510
1946,509
1947,509
1948,510
1949,508
1950,508
1951,508
1952,510
1953,511
1954,511
1955,508
1956,509
1957,509
1958,510
1959,508
1960,507
1961,508
1962,510
1963,509
1964,509
1965,507
1966,506
1967,508
1968,509
1969,508
1970,510
1971,510
1972,510
1973,510
1974,511
1975,510
1976,509
1977,509
1978,509
1979,510
1980,503
1981,498
1982,508
1983,534
1984,541
1985,528
1986,507
1987,499
1988,505
1989,506
1990,507
1991,509
1992,509
1993,507
1994,510
1995,509
1996,512
1997,512
1998,512
1999,513
