timestamp,signal
0,502
1,613
2,551
3,327
4,191
5,643
6,975
7,942
8,761
9,579
10,433
11,402
12,410
13,407
14,243
15,0
16,0
17,287
18,729
19,714
20,776
21,844
22,1022
23,1001
24,796
25,472
26,240
27,0
28,0
29,0
30,621
31,1022
32,1022
33,749
34,417
35,518
36,522
37,484
38,402
39,369
40,415
41,467
42,455
43,422
44,422
45,432
46,446
47,465
48,480
49,489
50,501
51,510
52,516
53,520
54,522
55,524
56,524
57,524
58,524
59,522
60,521
61,519
62,519
63,516
64,514
65,510
66,511
67,510
68,509
69,510
70,511
71,511
72,507
73,504
74,504
75,502
76,498
77,496
78,492
79,494
80,500
81,508
82,514
83,518
84,521
85,515
86,504
87,503
88,504
89,505
90,507
91,511
92,511
93,515
94,526
95,530
96,533
97,533
98,520
99,512
100,511
101,512
102,515
103,515
104,516
105,515
106,515
107,513
108,515
109,515
110,511
111,510
112,512
113,512
114,512
115,511
116,515
117,514
118,515
119,514
120,515
121,512
122,513
123,511
124,513
125,514
126,511
127,508
128,511
129,512
130,515
131,514
132,509
133,508
134,509
135,511
136,510
137,507
138,507
139,507
140,508
141,512
142,511
143,512
144,510
145,511
146,510
147,510
148,510
149,511
150,510
151,510
152,506
153,511
154,508
155,507
156,500
157,500
158,497
159,494
160,493
161,492
162,492
163,494
164,495
165,499
166,500
167,502
168,505
169,506
170,509
171,513
172,516
173,521
174,521
175,514
176,515
177,516
178,525
179,534
180,525
181,519
182,517
183,521
184,520
185,519
186,519
187,515
188,514
189,516
190,513
191,516
192,514
193,510
194,510
195,504
196,497
197,491
198,494
199,502
200,508
201,506
202,507
203,487
204,487
205,500
206,521
207,497
208,483
209,484
210,485
211,480
212,487
213,520
214,517
215,494
216,485
217,500
218,511
219,511
220,502
221,486
222,483
223,496
224,507
225,509
226,511
227,517
228,518
229,507
230,491
231,487
232,506
233,540
234,563
235,568
236,538
237,518
238,501
239,498
240,512
241,514
242,507
243,507
244,504
245,504
246,507
247,505
248,505
249,508
250,507
251,503
252,500
253,506
254,511
255,511
256,509
257,511
258,508
259,511
260,510
261,511
262,509
263,511
264,512
265,515
266,509
267,509
268,513
269,516
270,510
271,500
272,498
273,479
274,469
275,468
276,495
277,520
278,550
279,567
280,571
281,539
282,533
283,547
284,566
285,549
286,497
287,464
288,474
289,480
290,480
291,477
292,483
293,492
294,507
295,523
296,526
297,516
298,497
299,494
300,482
301,469
302,497
303,559
304,607
305,571
306,501
307,475
308,477
309,464
310,465
311,483
312,509
313,435
314,391
315,448
316,519
317,623
318,620
319,668
320,669
321,408
322,179
323,95
324,340
325,836
326,1022
327,1021
328,619
329,350
330,295
331,306
332,283
333,311
334,376
335,548
336,722
337,670
338,537
339,476
340,440
341,595
342,864
343,885
344,653
345,416
346,177
347,95
348,162
349,344
350,528
351,665
352,731
353,702
354,550
355,379
356,335
357,503
358,703
359,872
360,727
361,607
362,569
363,507
364,406
365,348
366,361
367,383
368,399
369,419
370,435
371,454
372,469
373,483
374,497
375,489
376,410
377,238
378,157
379,278
380,525
381,830
382,772
383,659
384,624
385,703
386,774
387,553
388,507
389,603
390,543
391,513
392,509
393,497
394,527
395,543
396,436
397,327
398,249
399,274
400,399
401,607
402,739
403,796
404,668
405,441
406,356
407,398
408,434
409,479
410,505
411,506
412,492
413,486
414,489
415,498
416,506
417,510
418,513
419,517
420,517
421,516
422,517
423,518
424,522
425,521
426,514
427,514
428,515
429,515
430,514
431,513
432,515
433,512
434,511
435,505
436,493
437,443
438,427
439,413
440,348
441,314
442,479
443,888
444,837
445,669
446,478
447,479
448,490
449,567
450,651
451,585
452,352
453,147
454,176
455,552
456,841
457,727
458,493
459,459
460,617
461,609
462,676
463,610
464,493
465,423
466,353
467,289
468,352
469,560
470,647
471,521
472,492
473,483
474,462
475,438
476,430
477,410
478,455
479,511
480,506
481,600
482,604
483,513
484,250
485,155
486,377
487,697
488,661
489,477
490,436
491,824
492,957
493,908
494,865
495,613
496,420
497,348
498,351
499,366
500,374
501,402
502,429
503,432
504,423
505,407
506,397
507,462
508,509
509,527
510,595
511,540
512,441
513,459
514,593
515,586
516,497
517,569
518,580
519,548
520,509
521,493
522,483
523,480
524,484
525,487
526,491
527,494
528,496
529,501
530,501
531,506
532,510
533,510
534,511
535,514
536,512
537,510
538,507
539,505
540,504
541,500
542,498
543,497
544,498
545,497
546,496
547,494
548,494
549,497
550,499
551,500
552,502
553,502
554,502
555,499
556,499
557,497
558,497
559,499
560,500
561,499
562,499
563,501
564,502
565,504
566,507
567,502
568,502
569,504
570,505
571,507
572,508
573,509
574,511
575,515
576,517
577,520
578,524
579,524
580,527
581,527
582,529
583,528
584,529
585,531
586,532
587,535
588,534
589,529
590,526
591,532
592,508
593,434
594,368
595,381
596,503
597,700
598,704
599,548
600,381
601,530
602,592
603,508
604,361
605,566
606,998
607,975
608,671
609,460
610,380
611,399
612,430
613,412
614,406
615,425
616,440
617,459
618,471
619,471
620,448
621,440
622,462
623,530
624,503
625,382
626,387
627,443
628,637
629,674
630,614
631,583
632,510
633,503
634,489
635,487
636,465
637,444
638,477
639,509
640,515
641,510
642,508
643,508
644,512
645,518
646,521
647,519
648,519
649,518
650,516
651,514
652,515
653,517
654,513
655,512
656,512
657,513
658,513
659,512
660,512
661,511
662,513
663,512
664,513
665,513
666,514
667,514
668,515
669,509
670,507
671,507
672,509
673,505
674,509
675,510
676,511
677,510
678,510
679,508
680,506
681,507
682,509
683,510
684,509
685,509
686,513
687,513
688,512
689,511
690,508
691,507
692,510
693,509
694,507
695,509
696,509
697,506
698,507
699,507
700,507
701,505
702,506
703,505
704,504
705,500
706,503
707,502
708,511
709,508
710,505
711,508
712,506
713,505
714,504
715,499
716,495
717,495
718,496
719,500
720,505
721,511
722,515
723,528
724,524
725,519
726,512
727,512
728,509
729,504
730,501
731,502
732,501
733,502
734,500
735,499
736,502
737,507
738,507
739,510
740,508
741,505
742,503
743,499
744,499
745,500
746,499
747,498
748,492
749,504
750,525
751,556
752,529
753,506
754,499
755,509
756,504
757,492
758,489
759,497
760,505
761,512
762,511
763,509
764,509
765,508
766,508
767,512
768,516
769,515
770,514
771,512
772,509
773,509
774,512
775,512
776,511
777,513
778,511
779,510
780,511
781,510
782,508
783,513
784,512
785,515
786,517
787,512
788,512
789,515
790,514
791,510
792,510
793,514
794,513
795,514
796,514
797,512
798,512
799,511
800,512
801,512
802,510
803,509
804,503
805,505
806,503
807,500
808,505
809,510
810,512
811,515
812,513
813,513
814,514
815,516
816,513
817,511
818,508
819,508
820,510
821,511
822,513
823,509
824,514
825,514
826,512
827,510
828,505
829,510
830,514
831,513
832,515
833,514
834,511
835,507
836,513
837,513
838,510
839,512
840,512
841,514
842,513
843,512
844,513
845,518
846,513
847,510
848,512
849,519
850,516
851,515
852,512
853,510
854,513
855,511
856,507
857,508
858,500
859,497
860,500
861,511
862,537
863,534
864,523
865,502
866,499
867,494
868,498
869,505
870,503
871,502
872,506
873,512
874,508
875,506
876,505
877,509
878,508
879,511
880,510
881,511
882,508
883,508
884,512
885,511
886,511
887,514
888,510
889,504
890,504
891,512
892,511
893,513
894,512
895,511
896,506
897,504
898,506
899,505
900,503
901,503
902,508
903,512
904,511
905,509
906,510
907,509
908,508
909,509
910,510
911,507
912,506
913,503
914,504
915,504
916,505
917,503
918,506
919,509
920,507
921,507
922,506
923,508
924,508
925,506
926,508
927,509
928,508
929,510
930,505
931,507
932,506
933,507
934,511
935,508
936,508
937,507
938,503
939,503
940,499
941,496
942,496
943,492
944,489
945,486
946,480
947,472
948,466
949,459
950,451
951,448
952,441
953,468
954,476
955,490
956,485
957,496
958,525
959,508
960,527
961,552
962,565
963,524
964,489
965,483
966,519
967,559
968,538
969,515
970,491
971,377
972,295
973,312
974,230
975,365
976,718
977,1022
978,1022
979,1014
980,458
981,216
982,244
983,392
984,670
985,815
986,600
987,294
988,0
989,0
990,367
991,758
992,945
993,893
994,793
995,780
996,691
997,530
998,356
999,142
1000,47
1001,10
1002,187
1003,647
1004,1022
1005,1022
1006,914
1007,538
1008,466
1009,556
1010,589
1011,531
1012,400
1013,335
1014,346
1015,380
1016,409
1017,421
1018,433
1019,452
1020,468
1021,477
1022,489
1023,519
1024,541
1025,548
1026,537
1027,511
1028,503
1029,510
1030,512
1031,510
1032,513
1033,513
1034,512
1035,513
1036,510
1037,509
1038,512
1039,511
1040,509
1041,510
1042,510
1043,512
1044,513
1045,507
1046,506
1047,507
1048,506
1049,508
1050,504
1051,504
1052,500
1053,506
1054,506
1055,504
1056,504
1057,504
1058,504
1059,505
1060,508
1061,510
1062,506
1063,508
1064,510
1065,514
1066,514
1067,515
1068,519
1069,517
1070,519
1071,512
1072,510
1073,508
1074,505
1075,508
1076,501
1077,502
1078,504
1079,509
1080,508
1081,503
1082,501
1083,507
1084,503
1085,463
1086,426
1087,376
1088,225
1089,182
1090,271
1091,635
1092,1017
1093,1022
1094,909
1095,695
1096,491
1097,250
1098,178
1099,252
1100,270
1101,304
1102,208
1103,686
1104,1022
1105,1022
1106,458
1107,237
1108,281
1109,319
1110,537
1111,993
1112,970
1113,730
1114,513
1115,277
1116,70
1117,50
1118,290
1119,387
1120,667
1121,980
1122,980
1123,753
1124,496
1125,371
1126,325
1127,327
1128,441
1129,473
1130,438
1131,418
1132,435
1133,440
1134,462
1135,476
1136,482
1137,489
1138,489
1139,475
1140,467
1141,488
1142,519
1143,591
1144,600
1145,563
1146,471
1147,455
1148,497
1149,515
1150,520
1151,520
1152,519
1153,519
1154,515
1155,509
1156,504
1157,490
1158,467
1159,453
1160,475
1161,559
1162,590
1163,607
1164,556
1165,504
1166,482
1167,486
1168,503
1169,536
1170,533
1171,534
1172,526
1173,516
1174,510
1175,510
1176,509
1177,510
1178,510
1179,508
1180,501
1181,499
1182,495
1183,494
1184,496
1185,497
1186,502
1187,504
1188,509
1189,514
1190,517
1191,514
1192,515
1193,515
1194,513
1195,511
1196,509
1197,510
1198,507
1199,506
1200,502
1201,508
1202,509
1203,508
1204,509
1205,508
1206,508
1207,506
1208,507
1209,511
1210,509
1211,512
1212,509
1213,511
1214,512
1215,512
1216,511
1217,508
1218,510
1219,506
1220,508
1221,508
1222,509
1223,508
1224,508
1225,508
1226,509
1227,511
1228,510
1229,512
1230,512
1231,512
1232,510
1233,511
1234,511
1235,512
1236,515
1237,511
1238,511
1239,511
1240,513
1241,515
1242,514
1243,512
1244,505
1245,484
1246,406
1247,263
1248,220
1249,261
1250,418
1251,485
1252,644
1253,833
1254,1022
1255,820
1256,689
1257,678
1258,723
1259,615
1260,492
1261,335
1262,197
1263,138
1264,47
1265,254
1266,845
1267,1022
1268,915
1269,581
1270,472
1271,426
1272,402
1273,376
1274,382
1275,402
1276,421
1277,442
1278,458
1279,473
1280,449
1281,427
1282,457
1283,445
1284,432
1285,464
1286,644
1287,675
1288,645
1289,587
1290,490
1291,467
1292,450
1293,394
1294,325
1295,324
1296,527
1297,814
1298,839
1299,659
1300,540
1301,478
1302,446
1303,449
1304,462
1305,475
1306,491
1307,492
1308,488
1309,470
1310,401
1311,353
1312,361
1313,493
1314,626
1315,568
1316,433
1317,286
1318,322
1319,572
1320,686
1321,699
1322,666
1323,778
1324,827
1325,713
1326,489
1327,466
1328,548
1329,596
1330,506
1331,413
1332,377
1333,379
1334,393
1335,423
1336,445
1337,458
1338,483
1339,465
1340,470
1341,455
1342,433
1343,411
1344,481
1345,638
1346,552
1347,218
1348,84
1349,238
1350,522
1351,828
1352,1022
1353,1017
1354,918
1355,815
1356,532
1357,357
1358,316
1359,341
1360,366
1361,390
1362,423
1363,455
1364,465
1365,458
1366,462
1367,472
1368,482
1369,491
1370,497
1371,502
1372,499
1373,493
1374,488
1375,444
1376,385
1377,296
1378,399
1379,663
1380,940
1381,806
1382,649
1383,524
1384,472
1385,464
1386,446
1387,460
1388,500
1389,518
1390,506
1391,502
1392,493
1393,484
1394,485
1395,488
1396,495
1397,499
1398,499
1399,503
1400,503
1401,507
1402,509
1403,510
1404,503
1405,469
1406,432
1407,410
1408,437
1409,542
1410,674
1411,656
1412,618
1413,589
1414,521
1415,491
1416,483
1417,479
1418,482
1419,488
1420,494
1421,497
1422,494
1423,496
1424,499
1425,501
1426,503
1427,506
1428,512
1429,513
1430,513
1431,516
1432,513
1433,512
1434,512
1435,515
1436,513
1437,511
1438,513
1439,512
1440,512
1441,512
1442,513
1443,515
1444,515
1445,514
1446,509
1447,500
1448,483
1449,467
1450,463
1451,495
1452,515
1453,546
1454,535
1455,523
1456,540
1457,536
1458,532
1459,518
1460,520
1461,528
1462,552
1463,547
1464,521
1465,505
1466,499
1467,501
1468,492
1469,490
1470,486
1471,487
1472,486
1473,475
1474,466
1475,479
1476,481
1477,496
1478,519
1479,544
1480,567
1481,554
1482,502
1483,481
1484,487
1485,512
1486,530
1487,537
1488,527
1489,510
1490,498
1491,494
1492,494
1493,505
1494,504
1495,504
1496,488
1497,482
1498,478
1499,488
1500,489
1501,527
1502,554
1503,585
1504,572
1505,541
1506,518
1507,497
1508,491
1509,494
1510,489
1511,489
1512,484
1513,483
1514,484
1515,484
1516,487
1517,489
1518,488
1519,491
1520,496
1521,497
1522,499
1523,501
1524,502
1525,506
1526,508
1527,503
1528,499
1529,505
1530,507
1531,512
1532,517
1533,518
1534,519
1535,518
1536,513
1537,509
1538,509
1539,512
1540,512
1541,511
1542,507
1543,505
1544,504
1545,510
1546,508
1547,511
1548,509
1549,507
1550,509
1551,510
1552,510
1553,509
1554,510
1555,512
1556,509
1557,508
1558,506
1559,504
1560,506
1561,505
1562,516
1563,545
1564,544
1565,526
1566,508
1567,507
1568,511
1569,510
1570,508
1571,506
1572,503
1573,504
1574,509
1575,514
1576,511
1577,518
1578,521
1579,515
1580,512
1581,511
1582,507
1583,506
1584,508
1585,514
1586,516
1587,504
1588,497
1589,517
1590,566
1591,534
1592,497
1593,497
1594,511
1595,520
1596,437
1597,428
1598,551
1599,537
1600,499
1601,593
1602,622
1603,485
1604,347
1605,398
1606,488
1607,408
1608,362
1609,449
1610,476
1611,513
1612,486
1613,539
1614,492
1615,544
1616,769
1617,844
1618,696
1619,686
1620,619
1621,661
1622,645
1623,500
1624,447
1625,381
1626,388
1627,403
1628,386
1629,407
1630,456
1631,488
1632,459
1633,408
1634,401
1635,473
1636,533
1637,528
1638,466
1639,372
1640,340
1641,427
1642,656
1643,874
1644,851
1645,739
1646,580
1647,490
1648,435
1649,429
1650,440
1651,450
1652,459
1653,462
1654,469
1655,477
1656,483
1657,488
1658,493
1659,497
1660,500
1661,499
1662,506
1663,510
1664,510
1665,511
1666,509
1667,510
1668,506
1669,508
1670,507
1671,505
1672,505
1673,508
1674,508
1675,505
1676,501
1677,501
1678,505
1679,507
1680,503
1681,504
1682,503
1683,505
1684,505
1685,501
1686,504
1687,503
1688,504
1689,502
1690,504
1691,504
1692,504
1693,502
1694,503
1695,504
1696,495
1697,455
1698,419
1699,389
1700,427
1701,541
1702,593
1703,554
1704,411
1705,410
1706,438
1707,371
1708,371
1709,511
1710,904
1711,920
1712,716
1713,638
1714,717
1715,551
1716,132
1717,102
1718,547
1719,887
1720,987
1721,813
1722,686
1723,428
1724,275
1725,207
1726,268
1727,543
1728,648
1729,525
1730,455
1731,432
1732,385
1733,395
1734,426
1735,517
1736,519
1737,493
1738,470
1739,479
1740,488
1741,481
1742,470
1743,461
1744,457
1745,476
1746,479
1747,505
1748,563
1749,575
1750,525
1751,561
1752,606
1753,609
1754,590
1755,524
1756,492
1757,477
1758,472
1759,465
1760,470
1761,477
1762,495
1763,503
1764,504
1765,502
1766,508
1767,513
1768,511
1769,506
1770,508
1771,512
1772,511
1773,512
1774,513
1775,513
1776,512
1777,510
1778,512
1779,510
1780,510
1781,508
1782,497
1783,481
1784,437
1785,450
1786,513
1787,585
1788,576
1789,560
1790,527
1791,507
1792,482
1793,476
1794,521
1795,551
1796,561
1797,552
1798,531
1799,506
1800,493
1801,490
1802,489
1803,490
1804,495
1805,480
1806,473
1807,476
1808,497
1809,546
1810,538
1811,521
1812,480
1813,502
1814,526
1815,515
1816,536
1817,527
1818,531
1819,513
1820,521
1821,525
1822,540
1823,511
1824,493
1825,493
1826,492
1827,487
1828,470
1829,402
1830,360
1831,407
1832,568
1833,671
1834,655
1835,606
1836,557
1837,511
1838,472
1839,472
1840,432
1841,376
1842,369
1843,375
1844,471
1845,518
1846,518
1847,472
1848,496
1849,686
1850,817
1851,801
1852,675
1853,535
1854,509
1855,487
1856,464
1857,444
1858,421
1859,436
1860,437
1861,415
1862,327
1863,172
1864,136
1865,129
1866,431
1867,823
1868,1022
1869,1022
1870,801
1871,610
1872,541
1873,439
1874,366
1875,347
1876,362
1877,426
1878,455
1879,524
1880,548
1881,483
1882,449
1883,451
1884,470
1885,478
1886,487
1887,496
1888,498
1889,501
1890,503
1891,509
1892,513
1893,512
1894,512
1895,511
1896,513
1897,513
1898,508
1899,510
1900,512
1901,510
1902,508
1903,514
1904,513
1905,515
1906,514
1907,512
1908,515
1909,519
1910,518
1911,514
1912,511
1913,508
1914,510
1915,508
1916,510
1917,509
1918,507
1919,511
1920,513
1921,515
1922,514
1923,512
1924,511
1925,436
1926,345
1927,329
1928,435
1929,698
1930,765
1931,702
1932,617
1933,522
1934,420
1935,397
1936,408
1937,454
1938,508
1939,478
1940,435
1941,297
1942,291
1943,323
1944,415
1945,852
1946,715
1947,653
1948,787
1949,810
1950,652
1951,492
1952,532
1953,697
1954,520
1955,463
1956,474
1957,375
1958,343
1959,329
1960,148
1961,0
1962,239
1963,719
1964,831
1965,801
1966,862
1967,833
1968,752
1969,654
1970,464
1971,312
1972,392
1973,380
1974,347
1975,379
1976,504
1977,561
1978,543
1979,495
1980,443
1981,452
1982,473
1983,489
1984,479
1985,478
1986,488
1987,487
1988,480
1989,474
1990,467
1991,483
1992,530
1993,556
1994,573
1995,610
1996,581
1997,527
1998,507
1999,502
